[Measurement conditions]
Sample identification,
Comment - 1,"Configuration=Configuration General-1, Owner=User-1, Creation date=7/25/2007 1:24:35 PM"
Comment - 2,"Goniometer=PW3050/20 HR  (Theta/2Theta); Minimum step size 2Theta:0.0001; Minimum step size Omega:0.0001"
Comment - 3,"Sample stage=MRD Cradle; Minimum step size Phi:0.01; Minimum step size Psi:0.01; Minimum step size X:0.01; Minimum step size Y:0.01; Minimum step size Z:0.001"
Comment - 4,"Diffractometer system=XPERT-MPD"
Comment - 5,"Measurement program=Sara Port, Owner=SPAC, Creation date=11/17/2015 3:06:16 PM"
Anode material,Cu
K-Alpha1 wavelength,1.5405980
K-Alpha2 wavelength,1.5444260
Ratio K-Alpha2/K-Alpha1,0.500
Monochromator used,NO
File date and time,02/Feb/2017 13:19
Unit cell,
h k l, 0 0 0
Scan axis,Gonio
Scan range,15.00000,85.05000
No. of points, 7005
Scan type,CONTINUOUS
[Scan points]
Angle,Intensity
15.00500,75.0
15.01500,47.0
15.02500,55.0
15.03500,58.0
15.04500,61.0
15.05500,63.0
15.06500,57.0
15.07500,63.0
15.08500,59.0
15.09500,45.0
15.10500,36.0
15.11500,55.0
15.12500,45.0
15.13500,59.0
15.14500,48.0
15.15500,55.0
15.16500,58.0
15.17500,44.0
15.18500,58.0
15.19500,70.0
15.20500,56.0
15.21500,52.0
15.22500,41.0
15.23500,65.0
15.24500,52.0
15.25500,57.0
15.26500,43.0
15.27500,50.0
15.28500,64.0
15.29500,59.0
15.30500,65.0
15.31500,85.0
15.32500,64.0
15.33500,63.0
15.34500,42.0
15.35500,56.0
15.36500,50.0
15.37500,54.0
15.38500,67.0
15.39500,64.0
15.40500,60.0
15.41500,72.0
15.42500,68.0
15.43500,59.0
15.44500,76.0
15.45500,73.0
15.46500,47.0
15.47500,49.0
15.48500,55.0
15.49500,51.0
15.50500,74.0
15.51500,70.0
15.52500,63.0
15.53500,55.0
15.54500,57.0
15.55500,65.0
15.56500,60.0
15.57500,73.0
15.58500,52.0
15.59500,51.0
15.60500,78.0
15.61500,57.0
15.62500,50.0
15.63500,62.0
15.64500,68.0
15.65500,40.0
15.66500,61.0
15.67500,65.0
15.68500,63.0
15.69500,79.0
15.70500,72.0
15.71500,74.0
15.72500,48.0
15.73500,68.0
15.74500,58.0
15.75500,57.0
15.76500,63.0
15.77500,49.0
15.78500,51.0
15.79500,66.0
15.80500,61.0
15.81500,63.0
15.82500,57.0
15.83500,59.0
15.84500,71.0
15.85500,51.0
15.86500,62.0
15.87500,72.0
15.88500,63.0
15.89500,60.0
15.90500,71.0
15.91500,56.0
15.92500,60.0
15.93500,66.0
15.94500,66.0
15.95500,42.0
15.96500,61.0
15.97500,49.0
15.98500,58.0
15.99500,49.0
16.00500,68.0
16.01500,66.0
16.02500,57.0
16.03500,58.0
16.04500,59.0
16.05500,65.0
16.06500,61.0
16.07500,37.0
16.08500,65.0
16.09500,64.0
16.10500,53.0
16.11500,43.0
16.12500,47.0
16.13500,53.0
16.14500,55.0
16.15500,62.0
16.16500,46.0
16.17500,36.0
16.18500,44.0
16.19500,64.0
16.20500,59.0
16.21500,75.0
16.22500,68.0
16.23500,48.0
16.24500,57.0
16.25500,51.0
16.26500,68.0
16.27500,57.0
16.28500,46.0
16.29500,46.0
16.30500,51.0
16.31500,51.0
16.32500,63.0
16.33500,48.0
16.34500,66.0
16.35500,48.0
16.36500,57.0
16.37500,56.0
16.38500,60.0
16.39500,53.0
16.40500,49.0
16.41500,49.0
16.42500,66.0
16.43500,56.0
16.44500,48.0
16.45500,62.0
16.46500,62.0
16.47500,55.0
16.48500,49.0
16.49500,63.0
16.50500,47.0
16.51500,66.0
16.52500,74.0
16.53500,50.0
16.54500,48.0
16.55500,51.0
16.56500,58.0
16.57500,63.0
16.58500,48.0
16.59500,62.0
16.60500,57.0
16.61500,51.0
16.62500,58.0
16.63500,53.0
16.64500,71.0
16.65500,59.0
16.66500,63.0
16.67500,69.0
16.68500,63.0
16.69500,62.0
16.70500,50.0
16.71500,67.0
16.72500,67.0
16.73500,57.0
16.74500,60.0
16.75500,58.0
16.76500,48.0
16.77500,39.0
16.78500,68.0
16.79500,62.0
16.80500,57.0
16.81500,57.0
16.82500,49.0
16.83500,63.0
16.84500,48.0
16.85500,62.0
16.86500,64.0
16.87500,66.0
16.88500,63.0
16.89500,68.0
16.90500,75.0
16.91500,63.0
16.92500,53.0
16.93500,59.0
16.94500,54.0
16.95500,64.0
16.96500,54.0
16.97500,55.0
16.98500,53.0
16.99500,47.0
17.00500,56.0
17.01500,65.0
17.02500,56.0
17.03500,67.0
17.04500,62.0
17.05500,57.0
17.06500,51.0
17.07500,69.0
17.08500,67.0
17.09500,65.0
17.10500,57.0
17.11500,56.0
17.12500,66.0
17.13500,62.0
17.14500,67.0
17.15500,58.0
17.16500,66.0
17.17500,65.0
17.18500,74.0
17.19500,57.0
17.20500,48.0
17.21500,65.0
17.22500,60.0
17.23500,68.0
17.24500,61.0
17.25500,62.0
17.26500,60.0
17.27500,67.0
17.28500,76.0
17.29500,64.0
17.30500,82.0
17.31500,73.0
17.32500,70.0
17.33500,74.0
17.34500,68.0
17.35500,64.0
17.36500,59.0
17.37500,70.0
17.38500,51.0
17.39500,70.0
17.40500,80.0
17.41500,63.0
17.42500,79.0
17.43500,83.0
17.44500,79.0
17.45500,71.0
17.46500,70.0
17.47500,81.0
17.48500,90.0
17.49500,84.0
17.50500,77.0
17.51500,65.0
17.52500,49.0
17.53500,65.0
17.54500,81.0
17.55500,70.0
17.56500,74.0
17.57500,72.0
17.58500,78.0
17.59500,77.0
17.60500,72.0
17.61500,66.0
17.62500,77.0
17.63500,65.0
17.64500,75.0
17.65500,84.0
17.66500,79.0
17.67500,83.0
17.68500,95.0
17.69500,80.0
17.70500,82.0
17.71500,78.0
17.72500,66.0
17.73500,83.0
17.74500,87.0
17.75500,110.0
17.76500,76.0
17.77500,79.0
17.78500,90.0
17.79500,76.0
17.80500,96.0
17.81500,106.0
17.82500,81.0
17.83500,87.0
17.84500,85.0
17.85500,81.0
17.86500,97.0
17.87500,77.0
17.88500,81.0
17.89500,88.0
17.90500,77.0
17.91500,86.0
17.92500,66.0
17.93500,92.0
17.94500,71.0
17.95500,97.0
17.96500,75.0
17.97500,75.0
17.98500,69.0
17.99500,66.0
18.00500,59.0
18.01500,73.0
18.02500,80.0
18.03500,71.0
18.04500,64.0
18.05500,74.0
18.06500,75.0
18.07500,65.0
18.08500,51.0
18.09500,70.0
18.10500,76.0
18.11500,73.0
18.12500,71.0
18.13500,81.0
18.14500,63.0
18.15500,49.0
18.16500,73.0
18.17500,67.0
18.18500,64.0
18.19500,55.0
18.20500,68.0
18.21500,74.0
18.22500,68.0
18.23500,58.0
18.24500,74.0
18.25500,70.0
18.26500,75.0
18.27500,76.0
18.28500,60.0
18.29500,76.0
18.30500,70.0
18.31500,61.0
18.32500,82.0
18.33500,53.0
18.34500,69.0
18.35500,73.0
18.36500,75.0
18.37500,65.0
18.38500,72.0
18.39500,66.0
18.40500,55.0
18.41500,71.0
18.42500,77.0
18.43500,76.0
18.44500,64.0
18.45500,75.0
18.46500,62.0
18.47500,73.0
18.48500,64.0
18.49500,72.0
18.50500,64.0
18.51500,99.0
18.52500,60.0
18.53500,82.0
18.54500,65.0
18.55500,66.0
18.56500,76.0
18.57500,59.0
18.58500,54.0
18.59500,59.0
18.60500,67.0
18.61500,64.0
18.62500,68.0
18.63500,78.0
18.64500,63.0
18.65500,70.0
18.66500,86.0
18.67500,55.0
18.68500,75.0
18.69500,74.0
18.70500,72.0
18.71500,81.0
18.72500,82.0
18.73500,74.0
18.74500,69.0
18.75500,67.0
18.76500,85.0
18.77500,81.0
18.78500,83.0
18.79500,78.0
18.80500,72.0
18.81500,76.0
18.82500,74.0
18.83500,74.0
18.84500,72.0
18.85500,82.0
18.86500,76.0
18.87500,74.0
18.88500,70.0
18.89500,74.0
18.90500,65.0
18.91500,66.0
18.92500,73.0
18.93500,79.0
18.94500,78.0
18.95500,72.0
18.96500,82.0
18.97500,83.0
18.98500,94.0
18.99500,59.0
19.00500,76.0
19.01500,79.0
19.02500,77.0
19.03500,64.0
19.04500,71.0
19.05500,54.0
19.06500,79.0
19.07500,62.0
19.08500,74.0
19.09500,81.0
19.10500,86.0
19.11500,88.0
19.12500,71.0
19.13500,71.0
19.14500,93.0
19.15500,88.0
19.16500,84.0
19.17500,76.0
19.18500,70.0
19.19500,81.0
19.20500,75.0
19.21500,77.0
19.22500,69.0
19.23500,89.0
19.24500,73.0
19.25500,86.0
19.26500,89.0
19.27500,89.0
19.28500,74.0
19.29500,88.0
19.30500,80.0
19.31500,84.0
19.32500,93.0
19.33500,76.0
19.34500,78.0
19.35500,67.0
19.36500,84.0
19.37500,65.0
19.38500,98.0
19.39500,89.0
19.40500,71.0
19.41500,84.0
19.42500,72.0
19.43500,83.0
19.44500,83.0
19.45500,80.0
19.46500,82.0
19.47500,82.0
19.48500,69.0
19.49500,64.0
19.50500,80.0
19.51500,80.0
19.52500,69.0
19.53500,74.0
19.54500,95.0
19.55500,84.0
19.56500,74.0
19.57500,62.0
19.58500,65.0
19.59500,88.0
19.60500,81.0
19.61500,91.0
19.62500,76.0
19.63500,84.0
19.64500,88.0
19.65500,73.0
19.66500,80.0
19.67500,71.0
19.68500,79.0
19.69500,73.0
19.70500,75.0
19.71500,77.0
19.72500,78.0
19.73500,71.0
19.74500,94.0
19.75500,61.0
19.76500,84.0
19.77500,76.0
19.78500,107.0
19.79500,52.0
19.80500,73.0
19.81500,94.0
19.82500,78.0
19.83500,77.0
19.84500,68.0
19.85500,73.0
19.86500,81.0
19.87500,93.0
19.88500,91.0
19.89500,97.0
19.90500,85.0
19.91500,66.0
19.92500,81.0
19.93500,88.0
19.94500,90.0
19.95500,90.0
19.96500,79.0
19.97500,83.0
19.98500,79.0
19.99500,76.0
20.00500,93.0
20.01500,78.0
20.02500,81.0
20.03500,64.0
20.04500,85.0
20.05500,75.0
20.06500,88.0
20.07500,85.0
20.08500,93.0
20.09500,76.0
20.10500,76.0
20.11500,75.0
20.12500,74.0
20.13500,80.0
20.14500,73.0
20.15500,98.0
20.16500,95.0
20.17500,73.0
20.18500,83.0
20.19500,84.0
20.20500,79.0
20.21500,77.0
20.22500,74.0
20.23500,75.0
20.24500,76.0
20.25500,95.0
20.26500,80.0
20.27500,85.0
20.28500,81.0
20.29500,93.0
20.30500,68.0
20.31500,80.0
20.32500,77.0
20.33500,83.0
20.34500,87.0
20.35500,79.0
20.36500,65.0
20.37500,75.0
20.38500,96.0
20.39500,68.0
20.40500,89.0
20.41500,83.0
20.42500,89.0
20.43500,84.0
20.44500,87.0
20.45500,86.0
20.46500,89.0
20.47500,69.0
20.48500,76.0
20.49500,83.0
20.50500,86.0
20.51500,88.0
20.52500,73.0
20.53500,76.0
20.54500,77.0
20.55500,83.0
20.56500,71.0
20.57500,82.0
20.58500,78.0
20.59500,72.0
20.60500,81.0
20.61500,75.0
20.62500,79.0
20.63500,80.0
20.64500,72.0
20.65500,94.0
20.66500,83.0
20.67500,87.0
20.68500,93.0
20.69500,88.0
20.70500,89.0
20.71500,73.0
20.72500,95.0
20.73500,70.0
20.74500,92.0
20.75500,106.0
20.76500,92.0
20.77500,105.0
20.78500,73.0
20.79500,92.0
20.80500,90.0
20.81500,85.0
20.82500,91.0
20.83500,92.0
20.84500,86.0
20.85500,88.0
20.86500,91.0
20.87500,92.0
20.88500,83.0
20.89500,103.0
20.90500,76.0
20.91500,74.0
20.92500,73.0
20.93500,82.0
20.94500,96.0
20.95500,75.0
20.96500,86.0
20.97500,76.0
20.98500,92.0
20.99500,79.0
21.00500,74.0
21.01500,72.0
21.02500,74.0
21.03500,71.0
21.04500,80.0
21.05500,82.0
21.06500,85.0
21.07500,78.0
21.08500,85.0
21.09500,100.0
21.10500,82.0
21.11500,64.0
21.12500,74.0
21.13500,91.0
21.14500,81.0
21.15500,89.0
21.16500,79.0
21.17500,85.0
21.18500,85.0
21.19500,89.0
21.20500,89.0
21.21500,64.0
21.22500,89.0
21.23500,69.0
21.24500,72.0
21.25500,73.0
21.26500,75.0
21.27500,71.0
21.28500,89.0
21.29500,75.0
21.30500,85.0
21.31500,87.0
21.32500,68.0
21.33500,87.0
21.34500,85.0
21.35500,95.0
21.36500,99.0
21.37500,87.0
21.38500,85.0
21.39500,78.0
21.40500,77.0
21.41500,99.0
21.42500,88.0
21.43500,94.0
21.44500,91.0
21.45500,81.0
21.46500,98.0
21.47500,86.0
21.48500,65.0
21.49500,95.0
21.50500,86.0
21.51500,88.0
21.52500,93.0
21.53500,85.0
21.54500,76.0
21.55500,83.0
21.56500,81.0
21.57500,97.0
21.58500,92.0
21.59500,85.0
21.60500,92.0
21.61500,83.0
21.62500,86.0
21.63500,74.0
21.64500,102.0
21.65500,94.0
21.66500,90.0
21.67500,75.0
21.68500,91.0
21.69500,92.0
21.70500,78.0
21.71500,107.0
21.72500,93.0
21.73500,89.0
21.74500,78.0
21.75500,92.0
21.76500,93.0
21.77500,98.0
21.78500,89.0
21.79500,80.0
21.80500,102.0
21.81500,86.0
21.82500,67.0
21.83500,95.0
21.84500,65.0
21.85500,75.0
21.86500,91.0
21.87500,88.0
21.88500,99.0
21.89500,87.0
21.90500,78.0
21.91500,106.0
21.92500,101.0
21.93500,90.0
21.94500,84.0
21.95500,82.0
21.96500,95.0
21.97500,93.0
21.98500,93.0
21.99500,82.0
22.00500,96.0
22.01500,94.0
22.02500,83.0
22.03500,100.0
22.04500,84.0
22.05500,89.0
22.06500,90.0
22.07500,96.0
22.08500,84.0
22.09500,98.0
22.10500,97.0
22.11500,109.0
22.12500,116.0
22.13500,114.0
22.14500,111.0
22.15500,100.0
22.16500,117.0
22.17500,108.0
22.18500,116.0
22.19500,101.0
22.20500,110.0
22.21500,115.0
22.22500,108.0
22.23500,100.0
22.24500,129.0
22.25500,103.0
22.26500,106.0
22.27500,98.0
22.28500,106.0
22.29500,103.0
22.30500,91.0
22.31500,114.0
22.32500,99.0
22.33500,89.0
22.34500,100.0
22.35500,93.0
22.36500,108.0
22.37500,82.0
22.38500,92.0
22.39500,100.0
22.40500,106.0
22.41500,84.0
22.42500,92.0
22.43500,102.0
22.44500,88.0
22.45500,61.0
22.46500,82.0
22.47500,98.0
22.48500,71.0
22.49500,90.0
22.50500,80.0
22.51500,105.0
22.52500,92.0
22.53500,75.0
22.54500,86.0
22.55500,84.0
22.56500,83.0
22.57500,94.0
22.58500,70.0
22.59500,73.0
22.60500,86.0
22.61500,105.0
22.62500,79.0
22.63500,86.0
22.64500,88.0
22.65500,75.0
22.66500,102.0
22.67500,98.0
22.68500,88.0
22.69500,96.0
22.70500,76.0
22.71500,85.0
22.72500,81.0
22.73500,114.0
22.74500,87.0
22.75500,89.0
22.76500,85.0
22.77500,90.0
22.78500,86.0
22.79500,113.0
22.80500,100.0
22.81500,105.0
22.82500,93.0
22.83500,97.0
22.84500,97.0
22.85500,96.0
22.86500,94.0
22.87500,106.0
22.88500,91.0
22.89500,102.0
22.90500,98.0
22.91500,98.0
22.92500,103.0
22.93500,101.0
22.94500,105.0
22.95500,97.0
22.96500,90.0
22.97500,101.0
22.98500,81.0
22.99500,92.0
23.00500,86.0
23.01500,78.0
23.02500,95.0
23.03500,100.0
23.04500,81.0
23.05500,101.0
23.06500,92.0
23.07500,103.0
23.08500,89.0
23.09500,92.0
23.10500,74.0
23.11500,80.0
23.12500,75.0
23.13500,77.0
23.14500,103.0
23.15500,88.0
23.16500,73.0
23.17500,83.0
23.18500,96.0
23.19500,96.0
23.20500,85.0
23.21500,98.0
23.22500,96.0
23.23500,84.0
23.24500,89.0
23.25500,91.0
23.26500,89.0
23.27500,105.0
23.28500,97.0
23.29500,96.0
23.30500,79.0
23.31500,94.0
23.32500,108.0
23.33500,118.0
23.34500,84.0
23.35500,96.0
23.36500,84.0
23.37500,104.0
23.38500,112.0
23.39500,96.0
23.40500,110.0
23.41500,94.0
23.42500,102.0
23.43500,84.0
23.44500,96.0
23.45500,114.0
23.46500,77.0
23.47500,99.0
23.48500,86.0
23.49500,100.0
23.50500,107.0
23.51500,97.0
23.52500,86.0
23.53500,89.0
23.54500,111.0
23.55500,91.0
23.56500,94.0
23.57500,101.0
23.58500,94.0
23.59500,106.0
23.60500,105.0
23.61500,105.0
23.62500,102.0
23.63500,100.0
23.64500,94.0
23.65500,86.0
23.66500,85.0
23.67500,84.0
23.68500,104.0
23.69500,124.0
23.70500,91.0
23.71500,89.0
23.72500,85.0
23.73500,90.0
23.74500,100.0
23.75500,99.0
23.76500,100.0
23.77500,81.0
23.78500,112.0
23.79500,92.0
23.80500,118.0
23.81500,98.0
23.82500,87.0
23.83500,102.0
23.84500,93.0
23.85500,84.0
23.86500,106.0
23.87500,100.0
23.88500,98.0
23.89500,99.0
23.90500,88.0
23.91500,87.0
23.92500,84.0
23.93500,108.0
23.94500,99.0
23.95500,105.0
23.96500,92.0
23.97500,95.0
23.98500,85.0
23.99500,95.0
24.00500,103.0
24.01500,94.0
24.02500,101.0
24.03500,109.0
24.04500,84.0
24.05500,105.0
24.06500,98.0
24.07500,77.0
24.08500,88.0
24.09500,95.0
24.10500,99.0
24.11500,106.0
24.12500,105.0
24.13500,99.0
24.14500,94.0
24.15500,112.0
24.16500,88.0
24.17500,108.0
24.18500,122.0
24.19500,125.0
24.20500,118.0
24.21500,138.0
24.22500,123.0
24.23500,96.0
24.24500,125.0
24.25500,138.0
24.26500,116.0
24.27500,110.0
24.28500,114.0
24.29500,130.0
24.30500,128.0
24.31500,110.0
24.32500,116.0
24.33500,133.0
24.34500,134.0
24.35500,132.0
24.36500,127.0
24.37500,109.0
24.38500,119.0
24.39500,127.0
24.40500,103.0
24.41500,113.0
24.42500,113.0
24.43500,95.0
24.44500,126.0
24.45500,105.0
24.46500,115.0
24.47500,118.0
24.48500,108.0
24.49500,112.0
24.50500,115.0
24.51500,113.0
24.52500,118.0
24.53500,132.0
24.54500,121.0
24.55500,112.0
24.56500,112.0
24.57500,107.0
24.58500,101.0
24.59500,127.0
24.60500,122.0
24.61500,105.0
24.62500,121.0
24.63500,113.0
24.64500,115.0
24.65500,98.0
24.66500,106.0
24.67500,110.0
24.68500,117.0
24.69500,103.0
24.70500,112.0
24.71500,97.0
24.72500,111.0
24.73500,115.0
24.74500,145.0
24.75500,139.0
24.76500,142.0
24.77500,137.0
24.78500,133.0
24.79500,129.0
24.80500,119.0
24.81500,145.0
24.82500,126.0
24.83500,132.0
24.84500,116.0
24.85500,163.0
24.86500,133.0
24.87500,129.0
24.88500,122.0
24.89500,160.0
24.90500,122.0
24.91500,143.0
24.92500,141.0
24.93500,137.0
24.94500,117.0
24.95500,125.0
24.96500,137.0
24.97500,163.0
24.98500,108.0
24.99500,123.0
25.00500,125.0
25.01500,104.0
25.02500,124.0
25.03500,105.0
25.04500,110.0
25.05500,107.0
25.06500,99.0
25.07500,107.0
25.08500,104.0
25.09500,128.0
25.10500,98.0
25.11500,124.0
25.12500,123.0
25.13500,94.0
25.14500,105.0
25.15500,107.0
25.16500,103.0
25.17500,82.0
25.18500,113.0
25.19500,122.0
25.20500,100.0
25.21500,91.0
25.22500,89.0
25.23500,101.0
25.24500,105.0
25.25500,97.0
25.26500,91.0
25.27500,96.0
25.28500,101.0
25.29500,84.0
25.30500,98.0
25.31500,88.0
25.32500,81.0
25.33500,77.0
25.34500,103.0
25.35500,89.0
25.36500,93.0
25.37500,92.0
25.38500,74.0
25.39500,93.0
25.40500,83.0
25.41500,98.0
25.42500,98.0
25.43500,65.0
25.44500,75.0
25.45500,91.0
25.46500,84.0
25.47500,99.0
25.48500,99.0
25.49500,95.0
25.50500,82.0
25.51500,98.0
25.52500,78.0
25.53500,79.0
25.54500,82.0
25.55500,83.0
25.56500,85.0
25.57500,76.0
25.58500,99.0
25.59500,84.0
25.60500,74.0
25.61500,84.0
25.62500,74.0
25.63500,88.0
25.64500,86.0
25.65500,111.0
25.66500,78.0
25.67500,95.0
25.68500,87.0
25.69500,93.0
25.70500,80.0
25.71500,84.0
25.72500,97.0
25.73500,89.0
25.74500,79.0
25.75500,87.0
25.76500,83.0
25.77500,84.0
25.78500,89.0
25.79500,82.0
25.80500,89.0
25.81500,82.0
25.82500,84.0
25.83500,74.0
25.84500,96.0
25.85500,79.0
25.86500,80.0
25.87500,83.0
25.88500,92.0
25.89500,107.0
25.90500,89.0
25.91500,100.0
25.92500,91.0
25.93500,83.0
25.94500,80.0
25.95500,103.0
25.96500,71.0
25.97500,85.0
25.98500,82.0
25.99500,82.0
26.00500,95.0
26.01500,99.0
26.02500,79.0
26.03500,74.0
26.04500,89.0
26.05500,81.0
26.06500,92.0
26.07500,90.0
26.08500,83.0
26.09500,70.0
26.10500,85.0
26.11500,71.0
26.12500,79.0
26.13500,82.0
26.14500,79.0
26.15500,74.0
26.16500,63.0
26.17500,97.0
26.18500,82.0
26.19500,76.0
26.20500,78.0
26.21500,67.0
26.22500,92.0
26.23500,82.0
26.24500,86.0
26.25500,86.0
26.26500,88.0
26.27500,87.0
26.28500,89.0
26.29500,85.0
26.30500,87.0
26.31500,84.0
26.32500,83.0
26.33500,82.0
26.34500,93.0
26.35500,82.0
26.36500,99.0
26.37500,92.0
26.38500,84.0
26.39500,100.0
26.40500,80.0
26.41500,94.0
26.42500,79.0
26.43500,90.0
26.44500,85.0
26.45500,82.0
26.46500,90.0
26.47500,78.0
26.48500,78.0
26.49500,84.0
26.50500,95.0
26.51500,75.0
26.52500,96.0
26.53500,97.0
26.54500,95.0
26.55500,88.0
26.56500,74.0
26.57500,92.0
26.58500,88.0
26.59500,92.0
26.60500,98.0
26.61500,100.0
26.62500,109.0
26.63500,95.0
26.64500,73.0
26.65500,90.0
26.66500,83.0
26.67500,82.0
26.68500,96.0
26.69500,97.0
26.70500,80.0
26.71500,94.0
26.72500,89.0
26.73500,101.0
26.74500,100.0
26.75500,101.0
26.76500,90.0
26.77500,83.0
26.78500,99.0
26.79500,99.0
26.80500,96.0
26.81500,89.0
26.82500,93.0
26.83500,113.0
26.84500,85.0
26.85500,100.0
26.86500,86.0
26.87500,103.0
26.88500,116.0
26.89500,93.0
26.90500,89.0
26.91500,97.0
26.92500,104.0
26.93500,95.0
26.94500,98.0
26.95500,102.0
26.96500,97.0
26.97500,106.0
26.98500,102.0
26.99500,99.0
27.00500,103.0
27.01500,95.0
27.02500,115.0
27.03500,99.0
27.04500,105.0
27.05500,109.0
27.06500,97.0
27.07500,104.0
27.08500,102.0
27.09500,109.0
27.10500,110.0
27.11500,110.0
27.12500,107.0
27.13500,100.0
27.14500,94.0
27.15500,128.0
27.16500,105.0
27.17500,94.0
27.18500,111.0
27.19500,98.0
27.20500,115.0
27.21500,104.0
27.22500,86.0
27.23500,94.0
27.24500,91.0
27.25500,109.0
27.26500,100.0
27.27500,118.0
27.28500,105.0
27.29500,105.0
27.30500,95.0
27.31500,121.0
27.32500,93.0
27.33500,109.0
27.34500,107.0
27.35500,126.0
27.36500,100.0
27.37500,108.0
27.38500,117.0
27.39500,106.0
27.40500,132.0
27.41500,97.0
27.42500,113.0
27.43500,113.0
27.44500,115.0
27.45500,119.0
27.46500,96.0
27.47500,99.0
27.48500,112.0
27.49500,83.0
27.50500,90.0
27.51500,103.0
27.52500,108.0
27.53500,127.0
27.54500,83.0
27.55500,96.0
27.56500,115.0
27.57500,97.0
27.58500,105.0
27.59500,100.0
27.60500,86.0
27.61500,90.0
27.62500,100.0
27.63500,83.0
27.64500,75.0
27.65500,105.0
27.66500,103.0
27.67500,94.0
27.68500,80.0
27.69500,77.0
27.70500,90.0
27.71500,87.0
27.72500,82.0
27.73500,85.0
27.74500,89.0
27.75500,98.0
27.76500,83.0
27.77500,97.0
27.78500,77.0
27.79500,75.0
27.80500,74.0
27.81500,91.0
27.82500,90.0
27.83500,68.0
27.84500,87.0
27.85500,70.0
27.86500,80.0
27.87500,75.0
27.88500,90.0
27.89500,77.0
27.90500,94.0
27.91500,72.0
27.92500,90.0
27.93500,67.0
27.94500,100.0
27.95500,91.0
27.96500,98.0
27.97500,85.0
27.98500,97.0
27.99500,88.0
28.00500,94.0
28.01500,103.0
28.02500,108.0
28.03500,99.0
28.04500,119.0
28.05500,116.0
28.06500,109.0
28.07500,122.0
28.08500,98.0
28.09500,114.0
28.10500,115.0
28.11500,121.0
28.12500,117.0
28.13500,122.0
28.14500,120.0
28.15500,138.0
28.16500,103.0
28.17500,110.0
28.18500,107.0
28.19500,101.0
28.20500,130.0
28.21500,148.0
28.22500,128.0
28.23500,113.0
28.24500,140.0
28.25500,163.0
28.26500,140.0
28.27500,152.0
28.28500,161.0
28.29500,178.0
28.30500,178.0
28.31500,196.0
28.32500,187.0
28.33500,175.0
28.34500,152.0
28.35500,179.0
28.36500,195.0
28.37500,237.0
28.38500,213.0
28.39500,197.0
28.40500,246.0
28.41500,216.0
28.42500,220.0
28.43500,245.0
28.44500,253.0
28.45500,262.0
28.46500,265.0
28.47500,259.0
28.48500,309.0
28.49500,258.0
28.50500,268.0
28.51500,287.0
28.52500,316.0
28.53500,290.0
28.54500,292.0
28.55500,308.0
28.56500,296.0
28.57500,294.0
28.58500,257.0
28.59500,321.0
28.60500,262.0
28.61500,264.0
28.62500,268.0
28.63500,287.0
28.64500,237.0
28.65500,239.0
28.66500,244.0
28.67500,227.0
28.68500,237.0
28.69500,232.0
28.70500,234.0
28.71500,223.0
28.72500,176.0
28.73500,182.0
28.74500,179.0
28.75500,163.0
28.76500,170.0
28.77500,167.0
28.78500,138.0
28.79500,158.0
28.80500,142.0
28.81500,132.0
28.82500,120.0
28.83500,111.0
28.84500,126.0
28.85500,93.0
28.86500,103.0
28.87500,92.0
28.88500,103.0
28.89500,93.0
28.90500,92.0
28.91500,100.0
28.92500,103.0
28.93500,116.0
28.94500,97.0
28.95500,83.0
28.96500,99.0
28.97500,92.0
28.98500,94.0
28.99500,82.0
29.00500,84.0
29.01500,97.0
29.02500,90.0
29.03500,76.0
29.04500,76.0
29.05500,67.0
29.06500,67.0
29.07500,89.0
29.08500,68.0
29.09500,84.0
29.10500,89.0
29.11500,89.0
29.12500,99.0
29.13500,87.0
29.14500,74.0
29.15500,72.0
29.16500,77.0
29.17500,71.0
29.18500,86.0
29.19500,81.0
29.20500,93.0
29.21500,82.0
29.22500,72.0
29.23500,64.0
29.24500,69.0
29.25500,83.0
29.26500,91.0
29.27500,80.0
29.28500,89.0
29.29500,74.0
29.30500,84.0
29.31500,73.0
29.32500,73.0
29.33500,84.0
29.34500,72.0
29.35500,73.0
29.36500,101.0
29.37500,63.0
29.38500,74.0
29.39500,75.0
29.40500,74.0
29.41500,75.0
29.42500,56.0
29.43500,99.0
29.44500,64.0
29.45500,65.0
29.46500,73.0
29.47500,73.0
29.48500,60.0
29.49500,72.0
29.50500,84.0
29.51500,78.0
29.52500,75.0
29.53500,79.0
29.54500,78.0
29.55500,77.0
29.56500,90.0
29.57500,57.0
29.58500,73.0
29.59500,75.0
29.60500,76.0
29.61500,68.0
29.62500,64.0
29.63500,57.0
29.64500,83.0
29.65500,83.0
29.66500,75.0
29.67500,66.0
29.68500,77.0
29.69500,81.0
29.70500,79.0
29.71500,75.0
29.72500,68.0
29.73500,74.0
29.74500,72.0
29.75500,74.0
29.76500,58.0
29.77500,83.0
29.78500,70.0
29.79500,80.0
29.80500,70.0
29.81500,73.0
29.82500,63.0
29.83500,73.0
29.84500,57.0
29.85500,65.0
29.86500,86.0
29.87500,76.0
29.88500,69.0
29.89500,69.0
29.90500,85.0
29.91500,77.0
29.92500,88.0
29.93500,65.0
29.94500,67.0
29.95500,72.0
29.96500,70.0
29.97500,62.0
29.98500,80.0
29.99500,76.0
30.00500,90.0
30.01500,44.0
30.02500,83.0
30.03500,61.0
30.04500,56.0
30.05500,74.0
30.06500,69.0
30.07500,61.0
30.08500,72.0
30.09500,80.0
30.10500,66.0
30.11500,75.0
30.12500,70.0
30.13500,64.0
30.14500,58.0
30.15500,80.0
30.16500,67.0
30.17500,70.0
30.18500,67.0
30.19500,77.0
30.20500,80.0
30.21500,48.0
30.22500,66.0
30.23500,69.0
30.24500,75.0
30.25500,70.0
30.26500,74.0
30.27500,74.0
30.28500,75.0
30.29500,71.0
30.30500,75.0
30.31500,73.0
30.32500,51.0
30.33500,70.0
30.34500,60.0
30.35500,74.0
30.36500,71.0
30.37500,76.0
30.38500,61.0
30.39500,83.0
30.40500,69.0
30.41500,69.0
30.42500,74.0
30.43500,71.0
30.44500,74.0
30.45500,74.0
30.46500,86.0
30.47500,67.0
30.48500,65.0
30.49500,74.0
30.50500,78.0
30.51500,81.0
30.52500,76.0
30.53500,69.0
30.54500,70.0
30.55500,63.0
30.56500,65.0
30.57500,78.0
30.58500,79.0
30.59500,62.0
30.60500,78.0
30.61500,64.0
30.62500,64.0
30.63500,78.0
30.64500,74.0
30.65500,71.0
30.66500,77.0
30.67500,75.0
30.68500,57.0
30.69500,70.0
30.70500,57.0
30.71500,75.0
30.72500,76.0
30.73500,62.0
30.74500,63.0
30.75500,59.0
30.76500,79.0
30.77500,74.0
30.78500,84.0
30.79500,73.0
30.80500,66.0
30.81500,88.0
30.82500,61.0
30.83500,72.0
30.84500,66.0
30.85500,59.0
30.86500,62.0
30.87500,61.0
30.88500,61.0
30.89500,66.0
30.90500,76.0
30.91500,74.0
30.92500,64.0
30.93500,57.0
30.94500,68.0
30.95500,55.0
30.96500,78.0
30.97500,53.0
30.98500,73.0
30.99500,76.0
31.00500,62.0
31.01500,53.0
31.02500,64.0
31.03500,64.0
31.04500,65.0
31.05500,66.0
31.06500,55.0
31.07500,73.0
31.08500,62.0
31.09500,67.0
31.10500,70.0
31.11500,72.0
31.12500,64.0
31.13500,79.0
31.14500,74.0
31.15500,70.0
31.16500,70.0
31.17500,70.0
31.18500,60.0
31.19500,67.0
31.20500,70.0
31.21500,70.0
31.22500,65.0
31.23500,70.0
31.24500,77.0
31.25500,69.0
31.26500,61.0
31.27500,53.0
31.28500,66.0
31.29500,65.0
31.30500,87.0
31.31500,60.0
31.32500,71.0
31.33500,67.0
31.34500,57.0
31.35500,67.0
31.36500,57.0
31.37500,64.0
31.38500,60.0
31.39500,73.0
31.40500,81.0
31.41500,70.0
31.42500,60.0
31.43500,88.0
31.44500,64.0
31.45500,91.0
31.46500,90.0
31.47500,85.0
31.48500,66.0
31.49500,67.0
31.50500,93.0
31.51500,81.0
31.52500,82.0
31.53500,75.0
31.54500,77.0
31.55500,81.0
31.56500,83.0
31.57500,96.0
31.58500,80.0
31.59500,70.0
31.60500,62.0
31.61500,85.0
31.62500,80.0
31.63500,82.0
31.64500,111.0
31.65500,78.0
31.66500,121.0
31.67500,84.0
31.68500,81.0
31.69500,92.0
31.70500,99.0
31.71500,101.0
31.72500,96.0
31.73500,96.0
31.74500,88.0
31.75500,85.0
31.76500,77.0
31.77500,95.0
31.78500,95.0
31.79500,91.0
31.80500,93.0
31.81500,73.0
31.82500,103.0
31.83500,80.0
31.84500,79.0
31.85500,71.0
31.86500,71.0
31.87500,79.0
31.88500,75.0
31.89500,76.0
31.90500,70.0
31.91500,75.0
31.92500,60.0
31.93500,76.0
31.94500,72.0
31.95500,74.0
31.96500,54.0
31.97500,59.0
31.98500,72.0
31.99500,69.0
32.00500,66.0
32.01500,61.0
32.02500,65.0
32.03500,82.0
32.04500,61.0
32.05500,76.0
32.06500,72.0
32.07500,74.0
32.08500,71.0
32.09500,77.0
32.10500,72.0
32.11500,66.0
32.12500,83.0
32.13500,82.0
32.14500,81.0
32.15500,80.0
32.16500,67.0
32.17500,84.0
32.18500,72.0
32.19500,58.0
32.20500,61.0
32.21500,75.0
32.22500,63.0
32.23500,76.0
32.24500,70.0
32.25500,81.0
32.26500,78.0
32.27500,63.0
32.28500,86.0
32.29500,79.0
32.30500,72.0
32.31500,71.0
32.32500,68.0
32.33500,56.0
32.34500,69.0
32.35500,76.0
32.36500,74.0
32.37500,73.0
32.38500,58.0
32.39500,49.0
32.40500,52.0
32.41500,63.0
32.42500,61.0
32.43500,79.0
32.44500,68.0
32.45500,79.0
32.46500,59.0
32.47500,62.0
32.48500,60.0
32.49500,59.0
32.50500,62.0
32.51500,80.0
32.52500,62.0
32.53500,70.0
32.54500,49.0
32.55500,57.0
32.56500,60.0
32.57500,56.0
32.58500,62.0
32.59500,55.0
32.60500,58.0
32.61500,60.0
32.62500,75.0
32.63500,60.0
32.64500,83.0
32.65500,70.0
32.66500,66.0
32.67500,53.0
32.68500,63.0
32.69500,62.0
32.70500,77.0
32.71500,67.0
32.72500,46.0
32.73500,67.0
32.74500,62.0
32.75500,72.0
32.76500,71.0
32.77500,62.0
32.78500,72.0
32.79500,78.0
32.80500,78.0
32.81500,59.0
32.82500,68.0
32.83500,85.0
32.84500,66.0
32.85500,64.0
32.86500,74.0
32.87500,70.0
32.88500,70.0
32.89500,68.0
32.90500,68.0
32.91500,71.0
32.92500,78.0
32.93500,57.0
32.94500,67.0
32.95500,51.0
32.96500,54.0
32.97500,72.0
32.98500,57.0
32.99500,66.0
33.00500,60.0
33.01500,68.0
33.02500,70.0
33.03500,64.0
33.04500,55.0
33.05500,64.0
33.06500,62.0
33.07500,51.0
33.08500,65.0
33.09500,57.0
33.10500,56.0
33.11500,61.0
33.12500,64.0
33.13500,57.0
33.14500,65.0
33.15500,54.0
33.16500,74.0
33.17500,47.0
33.18500,56.0
33.19500,58.0
33.20500,79.0
33.21500,53.0
33.22500,48.0
33.23500,57.0
33.24500,63.0
33.25500,71.0
33.26500,62.0
33.27500,73.0
33.28500,48.0
33.29500,67.0
33.30500,71.0
33.31500,55.0
33.32500,49.0
33.33500,72.0
33.34500,54.0
33.35500,48.0
33.36500,58.0
33.37500,55.0
33.38500,55.0
33.39500,58.0
33.40500,56.0
33.41500,67.0
33.42500,59.0
33.43500,52.0
33.44500,51.0
33.45500,62.0
33.46500,60.0
33.47500,53.0
33.48500,52.0
33.49500,54.0
33.50500,47.0
33.51500,59.0
33.52500,60.0
33.53500,60.0
33.54500,72.0
33.55500,71.0
33.56500,70.0
33.57500,55.0
33.58500,56.0
33.59500,48.0
33.60500,62.0
33.61500,65.0
33.62500,57.0
33.63500,64.0
33.64500,75.0
33.65500,66.0
33.66500,59.0
33.67500,73.0
33.68500,79.0
33.69500,60.0
33.70500,59.0
33.71500,59.0
33.72500,51.0
33.73500,68.0
33.74500,65.0
33.75500,57.0
33.76500,78.0
33.77500,75.0
33.78500,69.0
33.79500,84.0
33.80500,61.0
33.81500,53.0
33.82500,61.0
33.83500,69.0
33.84500,59.0
33.85500,79.0
33.86500,58.0
33.87500,66.0
33.88500,61.0
33.89500,58.0
33.90500,54.0
33.91500,58.0
33.92500,51.0
33.93500,62.0
33.94500,55.0
33.95500,68.0
33.96500,68.0
33.97500,59.0
33.98500,50.0
33.99500,65.0
34.00500,67.0
34.01500,51.0
34.02500,55.0
34.03500,59.0
34.04500,56.0
34.05500,50.0
34.06500,56.0
34.07500,55.0
34.08500,59.0
34.09500,57.0
34.10500,51.0
34.11500,74.0
34.12500,56.0
34.13500,72.0
34.14500,61.0
34.15500,49.0
34.16500,77.0
34.17500,66.0
34.18500,64.0
34.19500,63.0
34.20500,61.0
34.21500,46.0
34.22500,46.0
34.23500,73.0
34.24500,77.0
34.25500,57.0
34.26500,71.0
34.27500,65.0
34.28500,59.0
34.29500,61.0
34.30500,70.0
34.31500,64.0
34.32500,74.0
34.33500,71.0
34.34500,57.0
34.35500,85.0
34.36500,73.0
34.37500,70.0
34.38500,76.0
34.39500,64.0
34.40500,64.0
34.41500,67.0
34.42500,66.0
34.43500,65.0
34.44500,67.0
34.45500,66.0
34.46500,73.0
34.47500,68.0
34.48500,75.0
34.49500,62.0
34.50500,77.0
34.51500,56.0
34.52500,62.0
34.53500,41.0
34.54500,50.0
34.55500,47.0
34.56500,41.0
34.57500,45.0
34.58500,47.0
34.59500,49.0
34.60500,56.0
34.61500,58.0
34.62500,45.0
34.63500,54.0
34.64500,66.0
34.65500,63.0
34.66500,38.0
34.67500,66.0
34.68500,55.0
34.69500,56.0
34.70500,52.0
34.71500,54.0
34.72500,53.0
34.73500,57.0
34.74500,56.0
34.75500,52.0
34.76500,51.0
34.77500,63.0
34.78500,60.0
34.79500,51.0
34.80500,42.0
34.81500,58.0
34.82500,57.0
34.83500,52.0
34.84500,58.0
34.85500,44.0
34.86500,49.0
34.87500,38.0
34.88500,52.0
34.89500,65.0
34.90500,57.0
34.91500,47.0
34.92500,38.0
34.93500,49.0
34.94500,45.0
34.95500,55.0
34.96500,48.0
34.97500,48.0
34.98500,39.0
34.99500,45.0
35.00500,39.0
35.01500,51.0
35.02500,50.0
35.03500,51.0
35.04500,53.0
35.05500,51.0
35.06500,39.0
35.07500,54.0
35.08500,53.0
35.09500,45.0
35.10500,47.0
35.11500,56.0
35.12500,60.0
35.13500,52.0
35.14500,53.0
35.15500,53.0
35.16500,58.0
35.17500,48.0
35.18500,51.0
35.19500,52.0
35.20500,50.0
35.21500,41.0
35.22500,55.0
35.23500,63.0
35.24500,49.0
35.25500,46.0
35.26500,60.0
35.27500,54.0
35.28500,44.0
35.29500,43.0
35.30500,69.0
35.31500,69.0
35.32500,55.0
35.33500,53.0
35.34500,64.0
35.35500,55.0
35.36500,68.0
35.37500,65.0
35.38500,78.0
35.39500,58.0
35.40500,64.0
35.41500,68.0
35.42500,54.0
35.43500,58.0
35.44500,62.0
35.45500,55.0
35.46500,69.0
35.47500,59.0
35.48500,63.0
35.49500,60.0
35.50500,58.0
35.51500,63.0
35.52500,82.0
35.53500,49.0
35.54500,60.0
35.55500,62.0
35.56500,64.0
35.57500,64.0
35.58500,58.0
35.59500,55.0
35.60500,57.0
35.61500,67.0
35.62500,55.0
35.63500,54.0
35.64500,56.0
35.65500,63.0
35.66500,47.0
35.67500,58.0
35.68500,56.0
35.69500,41.0
35.70500,50.0
35.71500,58.0
35.72500,44.0
35.73500,60.0
35.74500,64.0
35.75500,58.0
35.76500,50.0
35.77500,44.0
35.78500,46.0
35.79500,45.0
35.80500,43.0
35.81500,47.0
35.82500,74.0
35.83500,55.0
35.84500,48.0
35.85500,51.0
35.86500,47.0
35.87500,42.0
35.88500,44.0
35.89500,52.0
35.90500,43.0
35.91500,61.0
35.92500,55.0
35.93500,45.0
35.94500,47.0
35.95500,50.0
35.96500,44.0
35.97500,60.0
35.98500,55.0
35.99500,53.0
36.00500,40.0
36.01500,46.0
36.02500,42.0
36.03500,53.0
36.04500,49.0
36.05500,49.0
36.06500,45.0
36.07500,61.0
36.08500,49.0
36.09500,46.0
36.10500,41.0
36.11500,46.0
36.12500,39.0
36.13500,37.0
36.14500,39.0
36.15500,46.0
36.16500,35.0
36.17500,51.0
36.18500,49.0
36.19500,50.0
36.20500,52.0
36.21500,54.0
36.22500,61.0
36.23500,51.0
36.24500,35.0
36.25500,61.0
36.26500,48.0
36.27500,65.0
36.28500,62.0
36.29500,57.0
36.30500,55.0
36.31500,52.0
36.32500,60.0
36.33500,53.0
36.34500,52.0
36.35500,58.0
36.36500,56.0
36.37500,56.0
36.38500,70.0
36.39500,54.0
36.40500,47.0
36.41500,75.0
36.42500,59.0
36.43500,71.0
36.44500,61.0
36.45500,66.0
36.46500,54.0
36.47500,54.0
36.48500,63.0
36.49500,46.0
36.50500,48.0
36.51500,66.0
36.52500,50.0
36.53500,59.0
36.54500,40.0
36.55500,61.0
36.56500,47.0
36.57500,41.0
36.58500,46.0
36.59500,56.0
36.60500,57.0
36.61500,34.0
36.62500,55.0
36.63500,58.0
36.64500,62.0
36.65500,47.0
36.66500,41.0
36.67500,48.0
36.68500,43.0
36.69500,50.0
36.70500,49.0
36.71500,40.0
36.72500,49.0
36.73500,33.0
36.74500,33.0
36.75500,36.0
36.76500,54.0
36.77500,56.0
36.78500,44.0
36.79500,41.0
36.80500,47.0
36.81500,52.0
36.82500,32.0
36.83500,39.0
36.84500,30.0
36.85500,54.0
36.86500,45.0
36.87500,45.0
36.88500,47.0
36.89500,37.0
36.90500,57.0
36.91500,44.0
36.92500,42.0
36.93500,47.0
36.94500,48.0
36.95500,39.0
36.96500,36.0
36.97500,38.0
36.98500,49.0
36.99500,46.0
37.00500,31.0
37.01500,38.0
37.02500,47.0
37.03500,39.0
37.04500,35.0
37.05500,35.0
37.06500,44.0
37.07500,54.0
37.08500,37.0
37.09500,43.0
37.10500,41.0
37.11500,23.0
37.12500,49.0
37.13500,58.0
37.14500,39.0
37.15500,42.0
37.16500,44.0
37.17500,41.0
37.18500,34.0
37.19500,50.0
37.20500,53.0
37.21500,42.0
37.22500,39.0
37.23500,36.0
37.24500,42.0
37.25500,58.0
37.26500,33.0
37.27500,43.0
37.28500,46.0
37.29500,46.0
37.30500,47.0
37.31500,55.0
37.32500,36.0
37.33500,57.0
37.34500,44.0
37.35500,39.0
37.36500,47.0
37.37500,42.0
37.38500,45.0
37.39500,50.0
37.40500,51.0
37.41500,61.0
37.42500,45.0
37.43500,51.0
37.44500,38.0
37.45500,46.0
37.46500,32.0
37.47500,43.0
37.48500,53.0
37.49500,43.0
37.50500,40.0
37.51500,25.0
37.52500,41.0
37.53500,34.0
37.54500,48.0
37.55500,46.0
37.56500,42.0
37.57500,38.0
37.58500,44.0
37.59500,45.0
37.60500,46.0
37.61500,38.0
37.62500,56.0
37.63500,37.0
37.64500,43.0
37.65500,52.0
37.66500,43.0
37.67500,31.0
37.68500,47.0
37.69500,43.0
37.70500,43.0
37.71500,42.0
37.72500,44.0
37.73500,34.0
37.74500,48.0
37.75500,53.0
37.76500,40.0
37.77500,43.0
37.78500,47.0
37.79500,45.0
37.80500,35.0
37.81500,42.0
37.82500,32.0
37.83500,34.0
37.84500,50.0
37.85500,53.0
37.86500,40.0
37.87500,44.0
37.88500,50.0
37.89500,53.0
37.90500,38.0
37.91500,52.0
37.92500,55.0
37.93500,48.0
37.94500,42.0
37.95500,51.0
37.96500,58.0
37.97500,62.0
37.98500,35.0
37.99500,62.0
38.00500,52.0
38.01500,42.0
38.02500,48.0
38.03500,56.0
38.04500,56.0
38.05500,45.0
38.06500,61.0
38.07500,56.0
38.08500,74.0
38.09500,63.0
38.10500,52.0
38.11500,51.0
38.12500,62.0
38.13500,71.0
38.14500,77.0
38.15500,64.0
38.16500,59.0
38.17500,64.0
38.18500,54.0
38.19500,46.0
38.20500,54.0
38.21500,59.0
38.22500,62.0
38.23500,67.0
38.24500,64.0
38.25500,61.0
38.26500,72.0
38.27500,59.0
38.28500,53.0
38.29500,57.0
38.30500,70.0
38.31500,49.0
38.32500,49.0
38.33500,56.0
38.34500,58.0
38.35500,41.0
38.36500,47.0
38.37500,58.0
38.38500,58.0
38.39500,50.0
38.40500,41.0
38.41500,56.0
38.42500,47.0
38.43500,42.0
38.44500,44.0
38.45500,40.0
38.46500,49.0
38.47500,43.0
38.48500,41.0
38.49500,43.0
38.50500,46.0
38.51500,40.0
38.52500,37.0
38.53500,43.0
38.54500,38.0
38.55500,50.0
38.56500,46.0
38.57500,46.0
38.58500,46.0
38.59500,26.0
38.60500,48.0
38.61500,46.0
38.62500,47.0
38.63500,45.0
38.64500,52.0
38.65500,43.0
38.66500,46.0
38.67500,48.0
38.68500,62.0
38.69500,55.0
38.70500,50.0
38.71500,51.0
38.72500,65.0
38.73500,44.0
38.74500,68.0
38.75500,61.0
38.76500,64.0
38.77500,48.0
38.78500,56.0
38.79500,60.0
38.80500,56.0
38.81500,60.0
38.82500,72.0
38.83500,78.0
38.84500,70.0
38.85500,89.0
38.86500,92.0
38.87500,80.0
38.88500,82.0
38.89500,97.0
38.90500,73.0
38.91500,104.0
38.92500,116.0
38.93500,100.0
38.94500,113.0
38.95500,102.0
38.96500,111.0
38.97500,122.0
38.98500,109.0
38.99500,123.0
39.00500,112.0
39.01500,111.0
39.02500,94.0
39.03500,128.0
39.04500,123.0
39.05500,101.0
39.06500,110.0
39.07500,95.0
39.08500,99.0
39.09500,98.0
39.10500,95.0
39.11500,95.0
39.12500,82.0
39.13500,84.0
39.14500,72.0
39.15500,91.0
39.16500,76.0
39.17500,62.0
39.18500,76.0
39.19500,67.0
39.20500,76.0
39.21500,71.0
39.22500,52.0
39.23500,64.0
39.24500,56.0
39.25500,62.0
39.26500,59.0
39.27500,42.0
39.28500,43.0
39.29500,56.0
39.30500,52.0
39.31500,53.0
39.32500,53.0
39.33500,57.0
39.34500,59.0
39.35500,48.0
39.36500,47.0
39.37500,55.0
39.38500,51.0
39.39500,52.0
39.40500,58.0
39.41500,55.0
39.42500,49.0
39.43500,45.0
39.44500,71.0
39.45500,56.0
39.46500,54.0
39.47500,43.0
39.48500,51.0
39.49500,62.0
39.50500,70.0
39.51500,55.0
39.52500,58.0
39.53500,47.0
39.54500,61.0
39.55500,51.0
39.56500,57.0
39.57500,70.0
39.58500,55.0
39.59500,68.0
39.60500,63.0
39.61500,70.0
39.62500,74.0
39.63500,64.0
39.64500,67.0
39.65500,66.0
39.66500,70.0
39.67500,68.0
39.68500,71.0
39.69500,88.0
39.70500,77.0
39.71500,69.0
39.72500,71.0
39.73500,69.0
39.74500,76.0
39.75500,66.0
39.76500,57.0
39.77500,74.0
39.78500,72.0
39.79500,76.0
39.80500,78.0
39.81500,63.0
39.82500,71.0
39.83500,72.0
39.84500,70.0
39.85500,57.0
39.86500,64.0
39.87500,59.0
39.88500,68.0
39.89500,65.0
39.90500,67.0
39.91500,54.0
39.92500,51.0
39.93500,49.0
39.94500,59.0
39.95500,58.0
39.96500,61.0
39.97500,57.0
39.98500,71.0
39.99500,58.0
40.00500,68.0
40.01500,49.0
40.02500,61.0
40.03500,60.0
40.04500,43.0
40.05500,47.0
40.06500,64.0
40.07500,44.0
40.08500,64.0
40.09500,56.0
40.10500,51.0
40.11500,50.0
40.12500,58.0
40.13500,53.0
40.14500,67.0
40.15500,49.0
40.16500,50.0
40.17500,50.0
40.18500,60.0
40.19500,52.0
40.20500,44.0
40.21500,46.0
40.22500,55.0
40.23500,53.0
40.24500,55.0
40.25500,59.0
40.26500,56.0
40.27500,60.0
40.28500,45.0
40.29500,43.0
40.30500,59.0
40.31500,58.0
40.32500,46.0
40.33500,59.0
40.34500,49.0
40.35500,53.0
40.36500,54.0
40.37500,51.0
40.38500,51.0
40.39500,53.0
40.40500,48.0
40.41500,55.0
40.42500,47.0
40.43500,49.0
40.44500,52.0
40.45500,55.0
40.46500,47.0
40.47500,50.0
40.48500,31.0
40.49500,42.0
40.50500,52.0
40.51500,40.0
40.52500,49.0
40.53500,42.0
40.54500,41.0
40.55500,42.0
40.56500,45.0
40.57500,44.0
40.58500,41.0
40.59500,46.0
40.60500,44.0
40.61500,41.0
40.62500,42.0
40.63500,47.0
40.64500,50.0
40.65500,38.0
40.66500,33.0
40.67500,39.0
40.68500,49.0
40.69500,43.0
40.70500,50.0
40.71500,32.0
40.72500,48.0
40.73500,44.0
40.74500,34.0
40.75500,48.0
40.76500,31.0
40.77500,58.0
40.78500,39.0
40.79500,42.0
40.80500,40.0
40.81500,52.0
40.82500,50.0
40.83500,43.0
40.84500,32.0
40.85500,47.0
40.86500,49.0
40.87500,43.0
40.88500,35.0
40.89500,41.0
40.90500,44.0
40.91500,42.0
40.92500,34.0
40.93500,45.0
40.94500,41.0
40.95500,30.0
40.96500,48.0
40.97500,47.0
40.98500,47.0
40.99500,40.0
41.00500,47.0
41.01500,41.0
41.02500,47.0
41.03500,36.0
41.04500,40.0
41.05500,37.0
41.06500,33.0
41.07500,46.0
41.08500,33.0
41.09500,40.0
41.10500,47.0
41.11500,30.0
41.12500,44.0
41.13500,54.0
41.14500,39.0
41.15500,32.0
41.16500,51.0
41.17500,50.0
41.18500,47.0
41.19500,48.0
41.20500,45.0
41.21500,31.0
41.22500,52.0
41.23500,38.0
41.24500,51.0
41.25500,48.0
41.26500,48.0
41.27500,46.0
41.28500,43.0
41.29500,49.0
41.30500,43.0
41.31500,35.0
41.32500,38.0
41.33500,51.0
41.34500,46.0
41.35500,45.0
41.36500,56.0
41.37500,48.0
41.38500,56.0
41.39500,56.0
41.40500,49.0
41.41500,53.0
41.42500,44.0
41.43500,54.0
41.44500,49.0
41.45500,39.0
41.46500,63.0
41.47500,56.0
41.48500,52.0
41.49500,60.0
41.50500,46.0
41.51500,61.0
41.52500,64.0
41.53500,57.0
41.54500,60.0
41.55500,64.0
41.56500,54.0
41.57500,68.0
41.58500,71.0
41.59500,63.0
41.60500,61.0
41.61500,47.0
41.62500,53.0
41.63500,62.0
41.64500,66.0
41.65500,60.0
41.66500,61.0
41.67500,54.0
41.68500,58.0
41.69500,47.0
41.70500,53.0
41.71500,40.0
41.72500,43.0
41.73500,43.0
41.74500,63.0
41.75500,49.0
41.76500,31.0
41.77500,58.0
41.78500,39.0
41.79500,43.0
41.80500,50.0
41.81500,34.0
41.82500,45.0
41.83500,52.0
41.84500,36.0
41.85500,50.0
41.86500,57.0
41.87500,41.0
41.88500,42.0
41.89500,52.0
41.90500,50.0
41.91500,50.0
41.92500,40.0
41.93500,35.0
41.94500,48.0
41.95500,48.0
41.96500,50.0
41.97500,51.0
41.98500,38.0
41.99500,51.0
42.00500,43.0
42.01500,57.0
42.02500,37.0
42.03500,45.0
42.04500,46.0
42.05500,43.0
42.06500,68.0
42.07500,49.0
42.08500,47.0
42.09500,53.0
42.10500,54.0
42.11500,60.0
42.12500,56.0
42.13500,43.0
42.14500,56.0
42.15500,52.0
42.16500,44.0
42.17500,50.0
42.18500,58.0
42.19500,44.0
42.20500,66.0
42.21500,50.0
42.22500,51.0
42.23500,72.0
42.24500,71.0
42.25500,68.0
42.26500,66.0
42.27500,57.0
42.28500,65.0
42.29500,77.0
42.30500,75.0
42.31500,80.0
42.32500,76.0
42.33500,62.0
42.34500,84.0
42.35500,90.0
42.36500,101.0
42.37500,84.0
42.38500,91.0
42.39500,92.0
42.40500,92.0
42.41500,106.0
42.42500,116.0
42.43500,90.0
42.44500,98.0
42.45500,111.0
42.46500,119.0
42.47500,104.0
42.48500,118.0
42.49500,124.0
42.50500,137.0
42.51500,128.0
42.52500,134.0
42.53500,119.0
42.54500,113.0
42.55500,138.0
42.56500,127.0
42.57500,123.0
42.58500,120.0
42.59500,122.0
42.60500,109.0
42.61500,122.0
42.62500,124.0
42.63500,116.0
42.64500,124.0
42.65500,111.0
42.66500,95.0
42.67500,87.0
42.68500,98.0
42.69500,81.0
42.70500,96.0
42.71500,87.0
42.72500,91.0
42.73500,65.0
42.74500,70.0
42.75500,83.0
42.76500,67.0
42.77500,87.0
42.78500,73.0
42.79500,73.0
42.80500,67.0
42.81500,77.0
42.82500,63.0
42.83500,60.0
42.84500,75.0
42.85500,55.0
42.86500,63.0
42.87500,36.0
42.88500,63.0
42.89500,57.0
42.90500,51.0
42.91500,54.0
42.92500,63.0
42.93500,50.0
42.94500,50.0
42.95500,52.0
42.96500,60.0
42.97500,50.0
42.98500,60.0
42.99500,47.0
43.00500,52.0
43.01500,54.0
43.02500,43.0
43.03500,50.0
43.04500,54.0
43.05500,58.0
43.06500,39.0
43.07500,51.0
43.08500,43.0
43.09500,45.0
43.10500,37.0
43.11500,40.0
43.12500,49.0
43.13500,49.0
43.14500,34.0
43.15500,60.0
43.16500,51.0
43.17500,55.0
43.18500,47.0
43.19500,30.0
43.20500,48.0
43.21500,44.0
43.22500,48.0
43.23500,41.0
43.24500,37.0
43.25500,38.0
43.26500,51.0
43.27500,51.0
43.28500,46.0
43.29500,49.0
43.30500,42.0
43.31500,38.0
43.32500,43.0
43.33500,37.0
43.34500,47.0
43.35500,45.0
43.36500,60.0
43.37500,42.0
43.38500,36.0
43.39500,42.0
43.40500,32.0
43.41500,35.0
43.42500,47.0
43.43500,43.0
43.44500,52.0
43.45500,50.0
43.46500,51.0
43.47500,44.0
43.48500,56.0
43.49500,58.0
43.50500,53.0
43.51500,54.0
43.52500,50.0
43.53500,48.0
43.54500,35.0
43.55500,42.0
43.56500,41.0
43.57500,39.0
43.58500,50.0
43.59500,40.0
43.60500,50.0
43.61500,35.0
43.62500,46.0
43.63500,43.0
43.64500,41.0
43.65500,45.0
43.66500,36.0
43.67500,37.0
43.68500,50.0
43.69500,40.0
43.70500,41.0
43.71500,35.0
43.72500,30.0
43.73500,40.0
43.74500,43.0
43.75500,45.0
43.76500,49.0
43.77500,56.0
43.78500,47.0
43.79500,37.0
43.80500,38.0
43.81500,36.0
43.82500,42.0
43.83500,39.0
43.84500,39.0
43.85500,53.0
43.86500,41.0
43.87500,36.0
43.88500,38.0
43.89500,43.0
43.90500,46.0
43.91500,54.0
43.92500,33.0
43.93500,51.0
43.94500,41.0
43.95500,46.0
43.96500,40.0
43.97500,54.0
43.98500,51.0
43.99500,38.0
44.00500,52.0
44.01500,39.0
44.02500,43.0
44.03500,37.0
44.04500,40.0
44.05500,45.0
44.06500,35.0
44.07500,30.0
44.08500,47.0
44.09500,47.0
44.10500,42.0
44.11500,43.0
44.12500,35.0
44.13500,38.0
44.14500,43.0
44.15500,27.0
44.16500,42.0
44.17500,26.0
44.18500,50.0
44.19500,42.0
44.20500,50.0
44.21500,51.0
44.22500,24.0
44.23500,46.0
44.24500,39.0
44.25500,37.0
44.26500,39.0
44.27500,45.0
44.28500,40.0
44.29500,40.0
44.30500,51.0
44.31500,43.0
44.32500,45.0
44.33500,41.0
44.34500,34.0
44.35500,35.0
44.36500,46.0
44.37500,33.0
44.38500,35.0
44.39500,39.0
44.40500,43.0
44.41500,33.0
44.42500,49.0
44.43500,49.0
44.44500,51.0
44.45500,52.0
44.46500,47.0
44.47500,43.0
44.48500,35.0
44.49500,37.0
44.50500,33.0
44.51500,39.0
44.52500,41.0
44.53500,49.0
44.54500,38.0
44.55500,49.0
44.56500,33.0
44.57500,45.0
44.58500,27.0
44.59500,29.0
44.60500,46.0
44.61500,41.0
44.62500,37.0
44.63500,42.0
44.64500,53.0
44.65500,40.0
44.66500,49.0
44.67500,42.0
44.68500,37.0
44.69500,43.0
44.70500,30.0
44.71500,51.0
44.72500,37.0
44.73500,48.0
44.74500,39.0
44.75500,41.0
44.76500,42.0
44.77500,41.0
44.78500,33.0
44.79500,35.0
44.80500,39.0
44.81500,40.0
44.82500,34.0
44.83500,44.0
44.84500,31.0
44.85500,34.0
44.86500,43.0
44.87500,37.0
44.88500,42.0
44.89500,35.0
44.90500,40.0
44.91500,31.0
44.92500,37.0
44.93500,44.0
44.94500,43.0
44.95500,27.0
44.96500,33.0
44.97500,54.0
44.98500,45.0
44.99500,33.0
45.00500,32.0
45.01500,40.0
45.02500,35.0
45.03500,36.0
45.04500,31.0
45.05500,54.0
45.06500,33.0
45.07500,42.0
45.08500,42.0
45.09500,51.0
45.10500,52.0
45.11500,43.0
45.12500,38.0
45.13500,40.0
45.14500,40.0
45.15500,43.0
45.16500,47.0
45.17500,31.0
45.18500,39.0
45.19500,43.0
45.20500,26.0
45.21500,44.0
45.22500,44.0
45.23500,42.0
45.24500,33.0
45.25500,38.0
45.26500,30.0
45.27500,43.0
45.28500,48.0
45.29500,44.0
45.30500,47.0
45.31500,44.0
45.32500,44.0
45.33500,47.0
45.34500,39.0
45.35500,47.0
45.36500,59.0
45.37500,51.0
45.38500,44.0
45.39500,51.0
45.40500,37.0
45.41500,43.0
45.42500,39.0
45.43500,55.0
45.44500,65.0
45.45500,58.0
45.46500,57.0
45.47500,51.0
45.48500,53.0
45.49500,49.0
45.50500,54.0
45.51500,69.0
45.52500,53.0
45.53500,43.0
45.54500,54.0
45.55500,41.0
45.56500,56.0
45.57500,54.0
45.58500,54.0
45.59500,51.0
45.60500,51.0
45.61500,48.0
45.62500,57.0
45.63500,46.0
45.64500,43.0
45.65500,46.0
45.66500,41.0
45.67500,55.0
45.68500,46.0
45.69500,32.0
45.70500,35.0
45.71500,44.0
45.72500,43.0
45.73500,40.0
45.74500,53.0
45.75500,40.0
45.76500,57.0
45.77500,62.0
45.78500,61.0
45.79500,52.0
45.80500,78.0
45.81500,40.0
45.82500,50.0
45.83500,69.0
45.84500,67.0
45.85500,61.0
45.86500,59.0
45.87500,63.0
45.88500,58.0
45.89500,60.0
45.90500,54.0
45.91500,60.0
45.92500,68.0
45.93500,47.0
45.94500,67.0
45.95500,58.0
45.96500,66.0
45.97500,57.0
45.98500,62.0
45.99500,59.0
46.00500,60.0
46.01500,57.0
46.02500,50.0
46.03500,53.0
46.04500,52.0
46.05500,55.0
46.06500,58.0
46.07500,50.0
46.08500,43.0
46.09500,52.0
46.10500,41.0
46.11500,43.0
46.12500,58.0
46.13500,54.0
46.14500,51.0
46.15500,44.0
46.16500,52.0
46.17500,60.0
46.18500,62.0
46.19500,58.0
46.20500,58.0
46.21500,45.0
46.22500,59.0
46.23500,74.0
46.24500,59.0
46.25500,50.0
46.26500,51.0
46.27500,52.0
46.28500,73.0
46.29500,68.0
46.30500,67.0
46.31500,73.0
46.32500,84.0
46.33500,89.0
46.34500,75.0
46.35500,78.0
46.36500,90.0
46.37500,83.0
46.38500,86.0
46.39500,74.0
46.40500,85.0
46.41500,70.0
46.42500,93.0
46.43500,83.0
46.44500,72.0
46.45500,85.0
46.46500,82.0
46.47500,77.0
46.48500,99.0
46.49500,69.0
46.50500,67.0
46.51500,91.0
46.52500,67.0
46.53500,81.0
46.54500,89.0
46.55500,78.0
46.56500,89.0
46.57500,77.0
46.58500,66.0
46.59500,78.0
46.60500,66.0
46.61500,80.0
46.62500,86.0
46.63500,71.0
46.64500,70.0
46.65500,83.0
46.66500,78.0
46.67500,63.0
46.68500,81.0
46.69500,60.0
46.70500,75.0
46.71500,68.0
46.72500,71.0
46.73500,68.0
46.74500,64.0
46.75500,63.0
46.76500,64.0
46.77500,64.0
46.78500,81.0
46.79500,68.0
46.80500,89.0
46.81500,78.0
46.82500,73.0
46.83500,59.0
46.84500,74.0
46.85500,64.0
46.86500,77.0
46.87500,81.0
46.88500,79.0
46.89500,77.0
46.90500,80.0
46.91500,68.0
46.92500,73.0
46.93500,81.0
46.94500,68.0
46.95500,69.0
46.96500,60.0
46.97500,52.0
46.98500,66.0
46.99500,61.0
47.00500,59.0
47.01500,63.0
47.02500,66.0
47.03500,74.0
47.04500,66.0
47.05500,67.0
47.06500,71.0
47.07500,49.0
47.08500,62.0
47.09500,43.0
47.10500,66.0
47.11500,58.0
47.12500,71.0
47.13500,60.0
47.14500,56.0
47.15500,46.0
47.16500,49.0
47.17500,60.0
47.18500,68.0
47.19500,54.0
47.20500,49.0
47.21500,48.0
47.22500,49.0
47.23500,66.0
47.24500,49.0
47.25500,54.0
47.26500,47.0
47.27500,48.0
47.28500,52.0
47.29500,47.0
47.30500,61.0
47.31500,45.0
47.32500,55.0
47.33500,49.0
47.34500,45.0
47.35500,49.0
47.36500,36.0
47.37500,40.0
47.38500,42.0
47.39500,55.0
47.40500,36.0
47.41500,49.0
47.42500,53.0
47.43500,29.0
47.44500,42.0
47.45500,54.0
47.46500,30.0
47.47500,33.0
47.48500,32.0
47.49500,32.0
47.50500,52.0
47.51500,43.0
47.52500,45.0
47.53500,39.0
47.54500,40.0
47.55500,36.0
47.56500,41.0
47.57500,31.0
47.58500,36.0
47.59500,39.0
47.60500,31.0
47.61500,36.0
47.62500,48.0
47.63500,33.0
47.64500,34.0
47.65500,37.0
47.66500,32.0
47.67500,35.0
47.68500,32.0
47.69500,37.0
47.70500,44.0
47.71500,23.0
47.72500,33.0
47.73500,35.0
47.74500,32.0
47.75500,36.0
47.76500,45.0
47.77500,35.0
47.78500,26.0
47.79500,40.0
47.80500,51.0
47.81500,39.0
47.82500,42.0
47.83500,37.0
47.84500,37.0
47.85500,28.0
47.86500,36.0
47.87500,34.0
47.88500,32.0
47.89500,36.0
47.90500,39.0
47.91500,32.0
47.92500,27.0
47.93500,36.0
47.94500,43.0
47.95500,43.0
47.96500,57.0
47.97500,37.0
47.98500,36.0
47.99500,43.0
48.00500,44.0
48.01500,44.0
48.02500,36.0
48.03500,42.0
48.04500,39.0
48.05500,41.0
48.06500,42.0
48.07500,34.0
48.08500,32.0
48.09500,44.0
48.10500,38.0
48.11500,38.0
48.12500,45.0
48.13500,45.0
48.14500,43.0
48.15500,36.0
48.16500,52.0
48.17500,43.0
48.18500,46.0
48.19500,44.0
48.20500,42.0
48.21500,53.0
48.22500,45.0
48.23500,33.0
48.24500,48.0
48.25500,42.0
48.26500,38.0
48.27500,39.0
48.28500,42.0
48.29500,50.0
48.30500,37.0
48.31500,35.0
48.32500,48.0
48.33500,46.0
48.34500,37.0
48.35500,35.0
48.36500,47.0
48.37500,38.0
48.38500,42.0
48.39500,35.0
48.40500,40.0
48.41500,34.0
48.42500,31.0
48.43500,33.0
48.44500,36.0
48.45500,45.0
48.46500,23.0
48.47500,38.0
48.48500,30.0
48.49500,44.0
48.50500,34.0
48.51500,38.0
48.52500,40.0
48.53500,41.0
48.54500,29.0
48.55500,32.0
48.56500,38.0
48.57500,33.0
48.58500,48.0
48.59500,43.0
48.60500,39.0
48.61500,39.0
48.62500,33.0
48.63500,26.0
48.64500,44.0
48.65500,43.0
48.66500,27.0
48.67500,37.0
48.68500,42.0
48.69500,38.0
48.70500,48.0
48.71500,34.0
48.72500,47.0
48.73500,34.0
48.74500,32.0
48.75500,44.0
48.76500,38.0
48.77500,37.0
48.78500,32.0
48.79500,32.0
48.80500,40.0
48.81500,33.0
48.82500,42.0
48.83500,51.0
48.84500,50.0
48.85500,50.0
48.86500,62.0
48.87500,31.0
48.88500,48.0
48.89500,42.0
48.90500,44.0
48.91500,49.0
48.92500,51.0
48.93500,42.0
48.94500,39.0
48.95500,45.0
48.96500,58.0
48.97500,43.0
48.98500,47.0
48.99500,56.0
49.00500,55.0
49.01500,59.0
49.02500,47.0
49.03500,38.0
49.04500,50.0
49.05500,30.0
49.06500,40.0
49.07500,54.0
49.08500,42.0
49.09500,39.0
49.10500,53.0
49.11500,40.0
49.12500,28.0
49.13500,45.0
49.14500,46.0
49.15500,43.0
49.16500,39.0
49.17500,34.0
49.18500,31.0
49.19500,45.0
49.20500,47.0
49.21500,49.0
49.22500,41.0
49.23500,39.0
49.24500,42.0
49.25500,47.0
49.26500,35.0
49.27500,48.0
49.28500,35.0
49.29500,35.0
49.30500,55.0
49.31500,42.0
49.32500,46.0
49.33500,49.0
49.34500,53.0
49.35500,52.0
49.36500,41.0
49.37500,50.0
49.38500,57.0
49.39500,65.0
49.40500,63.0
49.41500,68.0
49.42500,77.0
49.43500,51.0
49.44500,80.0
49.45500,74.0
49.46500,75.0
49.47500,88.0
49.48500,80.0
49.49500,94.0
49.50500,83.0
49.51500,108.0
49.52500,89.0
49.53500,73.0
49.54500,78.0
49.55500,88.0
49.56500,119.0
49.57500,95.0
49.58500,102.0
49.59500,84.0
49.60500,93.0
49.61500,87.0
49.62500,77.0
49.63500,79.0
49.64500,78.0
49.65500,77.0
49.66500,74.0
49.67500,67.0
49.68500,65.0
49.69500,74.0
49.70500,84.0
49.71500,56.0
49.72500,66.0
49.73500,65.0
49.74500,64.0
49.75500,48.0
49.76500,45.0
49.77500,49.0
49.78500,52.0
49.79500,60.0
49.80500,61.0
49.81500,50.0
49.82500,39.0
49.83500,56.0
49.84500,50.0
49.85500,62.0
49.86500,46.0
49.87500,47.0
49.88500,49.0
49.89500,34.0
49.90500,41.0
49.91500,46.0
49.92500,38.0
49.93500,46.0
49.94500,36.0
49.95500,29.0
49.96500,33.0
49.97500,52.0
49.98500,39.0
49.99500,37.0
50.00500,30.0
50.01500,52.0
50.02500,45.0
50.03500,35.0
50.04500,37.0
50.05500,35.0
50.06500,42.0
50.07500,52.0
50.08500,44.0
50.09500,54.0
50.10500,34.0
50.11500,36.0
50.12500,37.0
50.13500,43.0
50.14500,42.0
50.15500,34.0
50.16500,39.0
50.17500,31.0
50.18500,40.0
50.19500,51.0
50.20500,44.0
50.21500,29.0
50.22500,41.0
50.23500,39.0
50.24500,23.0
50.25500,41.0
50.26500,37.0
50.27500,46.0
50.28500,39.0
50.29500,41.0
50.30500,29.0
50.31500,45.0
50.32500,40.0
50.33500,36.0
50.34500,35.0
50.35500,27.0
50.36500,38.0
50.37500,32.0
50.38500,44.0
50.39500,40.0
50.40500,39.0
50.41500,39.0
50.42500,41.0
50.43500,29.0
50.44500,35.0
50.45500,36.0
50.46500,43.0
50.47500,31.0
50.48500,36.0
50.49500,32.0
50.50500,34.0
50.51500,31.0
50.52500,31.0
50.53500,35.0
50.54500,48.0
50.55500,43.0
50.56500,46.0
50.57500,51.0
50.58500,33.0
50.59500,31.0
50.60500,39.0
50.61500,39.0
50.62500,35.0
50.63500,38.0
50.64500,44.0
50.65500,39.0
50.66500,59.0
50.67500,36.0
50.68500,27.0
50.69500,46.0
50.70500,37.0
50.71500,38.0
50.72500,42.0
50.73500,49.0
50.74500,55.0
50.75500,39.0
50.76500,54.0
50.77500,40.0
50.78500,30.0
50.79500,55.0
50.80500,33.0
50.81500,38.0
50.82500,50.0
50.83500,43.0
50.84500,55.0
50.85500,42.0
50.86500,48.0
50.87500,36.0
50.88500,46.0
50.89500,53.0
50.90500,42.0
50.91500,47.0
50.92500,45.0
50.93500,49.0
50.94500,51.0
50.95500,53.0
50.96500,53.0
50.97500,56.0
50.98500,57.0
50.99500,50.0
51.00500,50.0
51.01500,50.0
51.02500,43.0
51.03500,59.0
51.04500,62.0
51.05500,49.0
51.06500,46.0
51.07500,57.0
51.08500,49.0
51.09500,52.0
51.10500,54.0
51.11500,64.0
51.12500,54.0
51.13500,51.0
51.14500,58.0
51.15500,42.0
51.16500,47.0
51.17500,54.0
51.18500,47.0
51.19500,43.0
51.20500,64.0
51.21500,53.0
51.22500,38.0
51.23500,62.0
51.24500,46.0
51.25500,51.0
51.26500,56.0
51.27500,43.0
51.28500,42.0
51.29500,48.0
51.30500,39.0
51.31500,50.0
51.32500,51.0
51.33500,49.0
51.34500,55.0
51.35500,63.0
51.36500,54.0
51.37500,50.0
51.38500,54.0
51.39500,64.0
51.40500,53.0
51.41500,44.0
51.42500,40.0
51.43500,42.0
51.44500,32.0
51.45500,31.0
51.46500,49.0
51.47500,36.0
51.48500,45.0
51.49500,49.0
51.50500,41.0
51.51500,52.0
51.52500,43.0
51.53500,44.0
51.54500,47.0
51.55500,51.0
51.56500,44.0
51.57500,30.0
51.58500,37.0
51.59500,42.0
51.60500,53.0
51.61500,31.0
51.62500,40.0
51.63500,34.0
51.64500,43.0
51.65500,42.0
51.66500,47.0
51.67500,52.0
51.68500,33.0
51.69500,41.0
51.70500,48.0
51.71500,23.0
51.72500,38.0
51.73500,44.0
51.74500,41.0
51.75500,53.0
51.76500,46.0
51.77500,42.0
51.78500,48.0
51.79500,51.0
51.80500,44.0
51.81500,35.0
51.82500,35.0
51.83500,53.0
51.84500,44.0
51.85500,47.0
51.86500,55.0
51.87500,46.0
51.88500,62.0
51.89500,60.0
51.90500,62.0
51.91500,67.0
51.92500,60.0
51.93500,50.0
51.94500,62.0
51.95500,72.0
51.96500,71.0
51.97500,79.0
51.98500,77.0
51.99500,71.0
52.00500,74.0
52.01500,76.0
52.02500,63.0
52.03500,73.0
52.04500,79.0
52.05500,66.0
52.06500,87.0
52.07500,83.0
52.08500,89.0
52.09500,88.0
52.10500,91.0
52.11500,84.0
52.12500,83.0
52.13500,66.0
52.14500,80.0
52.15500,84.0
52.16500,85.0
52.17500,90.0
52.18500,78.0
52.19500,59.0
52.20500,80.0
52.21500,75.0
52.22500,76.0
52.23500,65.0
52.24500,79.0
52.25500,84.0
52.26500,58.0
52.27500,61.0
52.28500,68.0
52.29500,53.0
52.30500,60.0
52.31500,56.0
52.32500,44.0
52.33500,44.0
52.34500,74.0
52.35500,57.0
52.36500,58.0
52.37500,52.0
52.38500,56.0
52.39500,62.0
52.40500,75.0
52.41500,52.0
52.42500,43.0
52.43500,55.0
52.44500,57.0
52.45500,48.0
52.46500,51.0
52.47500,73.0
52.48500,70.0
52.49500,62.0
52.50500,56.0
52.51500,54.0
52.52500,51.0
52.53500,80.0
52.54500,64.0
52.55500,75.0
52.56500,69.0
52.57500,54.0
52.58500,59.0
52.59500,53.0
52.60500,61.0
52.61500,65.0
52.62500,61.0
52.63500,53.0
52.64500,64.0
52.65500,66.0
52.66500,54.0
52.67500,48.0
52.68500,62.0
52.69500,52.0
52.70500,48.0
52.71500,50.0
52.72500,56.0
52.73500,48.0
52.74500,65.0
52.75500,55.0
52.76500,56.0
52.77500,60.0
52.78500,63.0
52.79500,47.0
52.80500,41.0
52.81500,49.0
52.82500,43.0
52.83500,55.0
52.84500,40.0
52.85500,43.0
52.86500,37.0
52.87500,52.0
52.88500,49.0
52.89500,37.0
52.90500,44.0
52.91500,42.0
52.92500,37.0
52.93500,47.0
52.94500,36.0
52.95500,41.0
52.96500,37.0
52.97500,32.0
52.98500,45.0
52.99500,47.0
53.00500,37.0
53.01500,31.0
53.02500,35.0
53.03500,29.0
53.04500,47.0
53.05500,30.0
53.06500,31.0
53.07500,38.0
53.08500,32.0
53.09500,31.0
53.10500,29.0
53.11500,40.0
53.12500,32.0
53.13500,31.0
53.14500,41.0
53.15500,35.0
53.16500,44.0
53.17500,40.0
53.18500,28.0
53.19500,25.0
53.20500,40.0
53.21500,45.0
53.22500,41.0
53.23500,26.0
53.24500,44.0
53.25500,32.0
53.26500,41.0
53.27500,48.0
53.28500,39.0
53.29500,40.0
53.30500,23.0
53.31500,34.0
53.32500,35.0
53.33500,30.0
53.34500,38.0
53.35500,32.0
53.36500,41.0
53.37500,39.0
53.38500,39.0
53.39500,49.0
53.40500,40.0
53.41500,33.0
53.42500,35.0
53.43500,40.0
53.44500,31.0
53.45500,37.0
53.46500,37.0
53.47500,42.0
53.48500,47.0
53.49500,41.0
53.50500,38.0
53.51500,32.0
53.52500,32.0
53.53500,38.0
53.54500,41.0
53.55500,41.0
53.56500,49.0
53.57500,51.0
53.58500,31.0
53.59500,49.0
53.60500,31.0
53.61500,51.0
53.62500,49.0
53.63500,31.0
53.64500,54.0
53.65500,46.0
53.66500,39.0
53.67500,43.0
53.68500,48.0
53.69500,34.0
53.70500,31.0
53.71500,38.0
53.72500,47.0
53.73500,41.0
53.74500,49.0
53.75500,53.0
53.76500,42.0
53.77500,53.0
53.78500,41.0
53.79500,38.0
53.80500,44.0
53.81500,33.0
53.82500,36.0
53.83500,31.0
53.84500,32.0
53.85500,37.0
53.86500,38.0
53.87500,32.0
53.88500,31.0
53.89500,36.0
53.90500,38.0
53.91500,39.0
53.92500,39.0
53.93500,36.0
53.94500,44.0
53.95500,41.0
53.96500,29.0
53.97500,43.0
53.98500,25.0
53.99500,33.0
54.00500,35.0
54.01500,38.0
54.02500,35.0
54.03500,43.0
54.04500,33.0
54.05500,32.0
54.06500,37.0
54.07500,36.0
54.08500,38.0
54.09500,42.0
54.10500,45.0
54.11500,40.0
54.12500,37.0
54.13500,32.0
54.14500,38.0
54.15500,39.0
54.16500,41.0
54.17500,50.0
54.18500,37.0
54.19500,56.0
54.20500,37.0
54.21500,38.0
54.22500,32.0
54.23500,31.0
54.24500,35.0
54.25500,26.0
54.26500,36.0
54.27500,39.0
54.28500,33.0
54.29500,45.0
54.30500,31.0
54.31500,36.0
54.32500,38.0
54.33500,45.0
54.34500,40.0
54.35500,37.0
54.36500,46.0
54.37500,49.0
54.38500,41.0
54.39500,48.0
54.40500,30.0
54.41500,37.0
54.42500,42.0
54.43500,35.0
54.44500,32.0
54.45500,46.0
54.46500,50.0
54.47500,48.0
54.48500,47.0
54.49500,37.0
54.50500,38.0
54.51500,50.0
54.52500,37.0
54.53500,36.0
54.54500,34.0
54.55500,34.0
54.56500,44.0
54.57500,45.0
54.58500,35.0
54.59500,40.0
54.60500,39.0
54.61500,58.0
54.62500,36.0
54.63500,38.0
54.64500,44.0
54.65500,43.0
54.66500,56.0
54.67500,35.0
54.68500,40.0
54.69500,39.0
54.70500,43.0
54.71500,38.0
54.72500,38.0
54.73500,52.0
54.74500,37.0
54.75500,33.0
54.76500,33.0
54.77500,41.0
54.78500,43.0
54.79500,42.0
54.80500,38.0
54.81500,38.0
54.82500,31.0
54.83500,33.0
54.84500,35.0
54.85500,49.0
54.86500,52.0
54.87500,46.0
54.88500,45.0
54.89500,34.0
54.90500,38.0
54.91500,41.0
54.92500,39.0
54.93500,44.0
54.94500,40.0
54.95500,41.0
54.96500,35.0
54.97500,28.0
54.98500,40.0
54.99500,38.0
55.00500,36.0
55.01500,35.0
55.02500,43.0
55.03500,31.0
55.04500,55.0
55.05500,30.0
55.06500,46.0
55.07500,48.0
55.08500,33.0
55.09500,39.0
55.10500,36.0
55.11500,49.0
55.12500,50.0
55.13500,41.0
55.14500,47.0
55.15500,36.0
55.16500,37.0
55.17500,35.0
55.18500,40.0
55.19500,37.0
55.20500,34.0
55.21500,38.0
55.22500,45.0
55.23500,53.0
55.24500,42.0
55.25500,35.0
55.26500,35.0
55.27500,42.0
55.28500,42.0
55.29500,43.0
55.30500,33.0
55.31500,31.0
55.32500,44.0
55.33500,44.0
55.34500,39.0
55.35500,32.0
55.36500,36.0
55.37500,42.0
55.38500,37.0
55.39500,60.0
55.40500,35.0
55.41500,47.0
55.42500,47.0
55.43500,33.0
55.44500,44.0
55.45500,44.0
55.46500,45.0
55.47500,41.0
55.48500,49.0
55.49500,37.0
55.50500,45.0
55.51500,50.0
55.52500,52.0
55.53500,31.0
55.54500,35.0
55.55500,33.0
55.56500,45.0
55.57500,33.0
55.58500,42.0
55.59500,41.0
55.60500,46.0
55.61500,46.0
55.62500,46.0
55.63500,50.0
55.64500,46.0
55.65500,57.0
55.66500,33.0
55.67500,52.0
55.68500,46.0
55.69500,58.0
55.70500,45.0
55.71500,58.0
55.72500,55.0
55.73500,52.0
55.74500,45.0
55.75500,54.0
55.76500,58.0
55.77500,42.0
55.78500,35.0
55.79500,37.0
55.80500,56.0
55.81500,53.0
55.82500,43.0
55.83500,47.0
55.84500,49.0
55.85500,46.0
55.86500,36.0
55.87500,58.0
55.88500,49.0
55.89500,57.0
55.90500,39.0
55.91500,50.0
55.92500,42.0
55.93500,54.0
55.94500,42.0
55.95500,43.0
55.96500,37.0
55.97500,51.0
55.98500,48.0
55.99500,48.0
56.00500,55.0
56.01500,45.0
56.02500,52.0
56.03500,37.0
56.04500,50.0
56.05500,33.0
56.06500,40.0
56.07500,40.0
56.08500,32.0
56.09500,36.0
56.10500,54.0
56.11500,35.0
56.12500,42.0
56.13500,55.0
56.14500,31.0
56.15500,49.0
56.16500,45.0
56.17500,39.0
56.18500,45.0
56.19500,42.0
56.20500,39.0
56.21500,47.0
56.22500,43.0
56.23500,37.0
56.24500,46.0
56.25500,39.0
56.26500,53.0
56.27500,31.0
56.28500,36.0
56.29500,47.0
56.30500,38.0
56.31500,33.0
56.32500,40.0
56.33500,45.0
56.34500,49.0
56.35500,45.0
56.36500,41.0
56.37500,40.0
56.38500,42.0
56.39500,31.0
56.40500,44.0
56.41500,35.0
56.42500,39.0
56.43500,42.0
56.44500,39.0
56.45500,41.0
56.46500,31.0
56.47500,44.0
56.48500,41.0
56.49500,40.0
56.50500,25.0
56.51500,38.0
56.52500,30.0
56.53500,39.0
56.54500,42.0
56.55500,26.0
56.56500,46.0
56.57500,56.0
56.58500,43.0
56.59500,32.0
56.60500,29.0
56.61500,36.0
56.62500,40.0
56.63500,32.0
56.64500,42.0
56.65500,50.0
56.66500,34.0
56.67500,34.0
56.68500,31.0
56.69500,42.0
56.70500,49.0
56.71500,45.0
56.72500,55.0
56.73500,35.0
56.74500,51.0
56.75500,35.0
56.76500,46.0
56.77500,44.0
56.78500,42.0
56.79500,46.0
56.80500,57.0
56.81500,53.0
56.82500,35.0
56.83500,49.0
56.84500,52.0
56.85500,42.0
56.86500,46.0
56.87500,39.0
56.88500,39.0
56.89500,51.0
56.90500,54.0
56.91500,45.0
56.92500,46.0
56.93500,49.0
56.94500,42.0
56.95500,44.0
56.96500,41.0
56.97500,46.0
56.98500,49.0
56.99500,52.0
57.00500,46.0
57.01500,39.0
57.02500,54.0
57.03500,41.0
57.04500,42.0
57.05500,40.0
57.06500,61.0
57.07500,40.0
57.08500,41.0
57.09500,41.0
57.10500,36.0
57.11500,46.0
57.12500,37.0
57.13500,55.0
57.14500,44.0
57.15500,37.0
57.16500,37.0
57.17500,26.0
57.18500,44.0
57.19500,45.0
57.20500,34.0
57.21500,39.0
57.22500,48.0
57.23500,44.0
57.24500,47.0
57.25500,46.0
57.26500,49.0
57.27500,47.0
57.28500,35.0
57.29500,52.0
57.30500,59.0
57.31500,38.0
57.32500,62.0
57.33500,61.0
57.34500,46.0
57.35500,55.0
57.36500,43.0
57.37500,50.0
57.38500,42.0
57.39500,57.0
57.40500,50.0
57.41500,42.0
57.42500,57.0
57.43500,41.0
57.44500,49.0
57.45500,41.0
57.46500,44.0
57.47500,36.0
57.48500,46.0
57.49500,45.0
57.50500,39.0
57.51500,32.0
57.52500,50.0
57.53500,45.0
57.54500,33.0
57.55500,36.0
57.56500,37.0
57.57500,46.0
57.58500,42.0
57.59500,41.0
57.60500,36.0
57.61500,49.0
57.62500,44.0
57.63500,29.0
57.64500,37.0
57.65500,33.0
57.66500,38.0
57.67500,40.0
57.68500,36.0
57.69500,51.0
57.70500,43.0
57.71500,35.0
57.72500,34.0
57.73500,44.0
57.74500,44.0
57.75500,39.0
57.76500,40.0
57.77500,45.0
57.78500,28.0
57.79500,46.0
57.80500,40.0
57.81500,45.0
57.82500,43.0
57.83500,34.0
57.84500,55.0
57.85500,50.0
57.86500,42.0
57.87500,28.0
57.88500,40.0
57.89500,42.0
57.90500,33.0
57.91500,41.0
57.92500,46.0
57.93500,52.0
57.94500,45.0
57.95500,32.0
57.96500,26.0
57.97500,40.0
57.98500,29.0
57.99500,30.0
58.00500,21.0
58.01500,38.0
58.02500,38.0
58.03500,48.0
58.04500,47.0
58.05500,48.0
58.06500,42.0
58.07500,22.0
58.08500,42.0
58.09500,47.0
58.10500,40.0
58.11500,45.0
58.12500,36.0
58.13500,35.0
58.14500,42.0
58.15500,45.0
58.16500,59.0
58.17500,54.0
58.18500,44.0
58.19500,34.0
58.20500,52.0
58.21500,58.0
58.22500,41.0
58.23500,41.0
58.24500,43.0
58.25500,48.0
58.26500,35.0
58.27500,45.0
58.28500,38.0
58.29500,58.0
58.30500,50.0
58.31500,37.0
58.32500,47.0
58.33500,37.0
58.34500,46.0
58.35500,36.0
58.36500,32.0
58.37500,55.0
58.38500,52.0
58.39500,49.0
58.40500,29.0
58.41500,40.0
58.42500,39.0
58.43500,54.0
58.44500,54.0
58.45500,36.0
58.46500,52.0
58.47500,48.0
58.48500,41.0
58.49500,50.0
58.50500,49.0
58.51500,56.0
58.52500,48.0
58.53500,45.0
58.54500,55.0
58.55500,44.0
58.56500,39.0
58.57500,54.0
58.58500,44.0
58.59500,46.0
58.60500,50.0
58.61500,46.0
58.62500,46.0
58.63500,48.0
58.64500,39.0
58.65500,50.0
58.66500,69.0
58.67500,51.0
58.68500,41.0
58.69500,49.0
58.70500,53.0
58.71500,59.0
58.72500,62.0
58.73500,48.0
58.74500,51.0
58.75500,48.0
58.76500,38.0
58.77500,43.0
58.78500,58.0
58.79500,56.0
58.80500,69.0
58.81500,60.0
58.82500,51.0
58.83500,47.0
58.84500,42.0
58.85500,60.0
58.86500,46.0
58.87500,63.0
58.88500,60.0
58.89500,47.0
58.90500,59.0
58.91500,54.0
58.92500,59.0
58.93500,62.0
58.94500,53.0
58.95500,58.0
58.96500,37.0
58.97500,40.0
58.98500,54.0
58.99500,52.0
59.00500,62.0
59.01500,61.0
59.02500,71.0
59.03500,53.0
59.04500,57.0
59.05500,59.0
59.06500,47.0
59.07500,57.0
59.08500,63.0
59.09500,73.0
59.10500,66.0
59.11500,69.0
59.12500,76.0
59.13500,63.0
59.14500,60.0
59.15500,64.0
59.16500,58.0
59.17500,62.0
59.18500,65.0
59.19500,74.0
59.20500,54.0
59.21500,62.0
59.22500,52.0
59.23500,52.0
59.24500,56.0
59.25500,52.0
59.26500,76.0
59.27500,70.0
59.28500,76.0
59.29500,76.0
59.30500,60.0
59.31500,67.0
59.32500,59.0
59.33500,53.0
59.34500,45.0
59.35500,48.0
59.36500,69.0
59.37500,47.0
59.38500,50.0
59.39500,48.0
59.40500,55.0
59.41500,57.0
59.42500,51.0
59.43500,50.0
59.44500,50.0
59.45500,63.0
59.46500,58.0
59.47500,59.0
59.48500,49.0
59.49500,56.0
59.50500,48.0
59.51500,56.0
59.52500,64.0
59.53500,58.0
59.54500,51.0
59.55500,48.0
59.56500,55.0
59.57500,38.0
59.58500,51.0
59.59500,57.0
59.60500,64.0
59.61500,50.0
59.62500,46.0
59.63500,61.0
59.64500,39.0
59.65500,49.0
59.66500,46.0
59.67500,53.0
59.68500,56.0
59.69500,52.0
59.70500,40.0
59.71500,46.0
59.72500,42.0
59.73500,45.0
59.74500,45.0
59.75500,36.0
59.76500,52.0
59.77500,44.0
59.78500,43.0
59.79500,42.0
59.80500,53.0
59.81500,47.0
59.82500,36.0
59.83500,40.0
59.84500,31.0
59.85500,40.0
59.86500,40.0
59.87500,45.0
59.88500,42.0
59.89500,45.0
59.90500,42.0
59.91500,43.0
59.92500,22.0
59.93500,44.0
59.94500,45.0
59.95500,44.0
59.96500,37.0
59.97500,38.0
59.98500,44.0
59.99500,35.0
60.00500,44.0
60.01500,47.0
60.02500,36.0
60.03500,31.0
60.04500,32.0
60.05500,40.0
60.06500,41.0
60.07500,46.0
60.08500,39.0
60.09500,40.0
60.10500,37.0
60.11500,40.0
60.12500,38.0
60.13500,39.0
60.14500,45.0
60.15500,45.0
60.16500,45.0
60.17500,46.0
60.18500,50.0
60.19500,41.0
60.20500,39.0
60.21500,42.0
60.22500,47.0
60.23500,32.0
60.24500,26.0
60.25500,57.0
60.26500,43.0
60.27500,38.0
60.28500,40.0
60.29500,54.0
60.30500,32.0
60.31500,41.0
60.32500,36.0
60.33500,38.0
60.34500,36.0
60.35500,41.0
60.36500,35.0
60.37500,44.0
60.38500,52.0
60.39500,44.0
60.40500,32.0
60.41500,43.0
60.42500,40.0
60.43500,46.0
60.44500,40.0
60.45500,29.0
60.46500,33.0
60.47500,41.0
60.48500,37.0
60.49500,40.0
60.50500,49.0
60.51500,52.0
60.52500,43.0
60.53500,54.0
60.54500,37.0
60.55500,42.0
60.56500,34.0
60.57500,42.0
60.58500,34.0
60.59500,26.0
60.60500,45.0
60.61500,43.0
60.62500,42.0
60.63500,36.0
60.64500,33.0
60.65500,42.0
60.66500,29.0
60.67500,55.0
60.68500,31.0
60.69500,38.0
60.70500,53.0
60.71500,40.0
60.72500,44.0
60.73500,31.0
60.74500,31.0
60.75500,48.0
60.76500,37.0
60.77500,33.0
60.78500,37.0
60.79500,51.0
60.80500,37.0
60.81500,48.0
60.82500,43.0
60.83500,42.0
60.84500,36.0
60.85500,44.0
60.86500,44.0
60.87500,40.0
60.88500,39.0
60.89500,38.0
60.90500,30.0
60.91500,44.0
60.92500,31.0
60.93500,45.0
60.94500,53.0
60.95500,39.0
60.96500,46.0
60.97500,51.0
60.98500,46.0
60.99500,47.0
61.00500,45.0
61.01500,39.0
61.02500,30.0
61.03500,43.0
61.04500,43.0
61.05500,48.0
61.06500,43.0
61.07500,32.0
61.08500,48.0
61.09500,53.0
61.10500,38.0
61.11500,44.0
61.12500,40.0
61.13500,37.0
61.14500,33.0
61.15500,40.0
61.16500,45.0
61.17500,46.0
61.18500,48.0
61.19500,45.0
61.20500,42.0
61.21500,35.0
61.22500,31.0
61.23500,36.0
61.24500,48.0
61.25500,43.0
61.26500,36.0
61.27500,49.0
61.28500,39.0
61.29500,43.0
61.30500,43.0
61.31500,35.0
61.32500,43.0
61.33500,36.0
61.34500,42.0
61.35500,38.0
61.36500,35.0
61.37500,32.0
61.38500,48.0
61.39500,34.0
61.40500,30.0
61.41500,32.0
61.42500,40.0
61.43500,46.0
61.44500,38.0
61.45500,44.0
61.46500,33.0
61.47500,28.0
61.48500,34.0
61.49500,41.0
61.50500,25.0
61.51500,33.0
61.52500,49.0
61.53500,35.0
61.54500,30.0
61.55500,28.0
61.56500,41.0
61.57500,37.0
61.58500,43.0
61.59500,43.0
61.60500,34.0
61.61500,50.0
61.62500,42.0
61.63500,37.0
61.64500,37.0
61.65500,53.0
61.66500,33.0
61.67500,39.0
61.68500,46.0
61.69500,38.0
61.70500,40.0
61.71500,44.0
61.72500,44.0
61.73500,40.0
61.74500,37.0
61.75500,26.0
61.76500,54.0
61.77500,46.0
61.78500,40.0
61.79500,38.0
61.80500,40.0
61.81500,45.0
61.82500,41.0
61.83500,32.0
61.84500,40.0
61.85500,31.0
61.86500,42.0
61.87500,26.0
61.88500,41.0
61.89500,48.0
61.90500,47.0
61.91500,50.0
61.92500,51.0
61.93500,42.0
61.94500,41.0
61.95500,41.0
61.96500,43.0
61.97500,34.0
61.98500,52.0
61.99500,37.0
62.00500,43.0
62.01500,34.0
62.02500,48.0
62.03500,49.0
62.04500,48.0
62.05500,38.0
62.06500,42.0
62.07500,48.0
62.08500,51.0
62.09500,40.0
62.10500,38.0
62.11500,43.0
62.12500,49.0
62.13500,47.0
62.14500,42.0
62.15500,30.0
62.16500,50.0
62.17500,38.0
62.18500,43.0
62.19500,37.0
62.20500,42.0
62.21500,40.0
62.22500,50.0
62.23500,48.0
62.24500,30.0
62.25500,40.0
62.26500,48.0
62.27500,43.0
62.28500,45.0
62.29500,48.0
62.30500,42.0
62.31500,36.0
62.32500,42.0
62.33500,40.0
62.34500,41.0
62.35500,50.0
62.36500,50.0
62.37500,43.0
62.38500,55.0
62.39500,52.0
62.40500,47.0
62.41500,56.0
62.42500,62.0
62.43500,55.0
62.44500,47.0
62.45500,58.0
62.46500,56.0
62.47500,41.0
62.48500,56.0
62.49500,47.0
62.50500,42.0
62.51500,40.0
62.52500,41.0
62.53500,43.0
62.54500,45.0
62.55500,45.0
62.56500,43.0
62.57500,51.0
62.58500,55.0
62.59500,43.0
62.60500,50.0
62.61500,48.0
62.62500,44.0
62.63500,37.0
62.64500,49.0
62.65500,55.0
62.66500,50.0
62.67500,44.0
62.68500,54.0
62.69500,55.0
62.70500,58.0
62.71500,51.0
62.72500,63.0
62.73500,49.0
62.74500,48.0
62.75500,52.0
62.76500,58.0
62.77500,43.0
62.78500,48.0
62.79500,51.0
62.80500,40.0
62.81500,55.0
62.82500,50.0
62.83500,60.0
62.84500,46.0
62.85500,51.0
62.86500,40.0
62.87500,51.0
62.88500,41.0
62.89500,52.0
62.90500,35.0
62.91500,27.0
62.92500,45.0
62.93500,37.0
62.94500,51.0
62.95500,54.0
62.96500,37.0
62.97500,47.0
62.98500,47.0
62.99500,49.0
63.00500,35.0
63.01500,58.0
63.02500,37.0
63.03500,55.0
63.04500,45.0
63.05500,37.0
63.06500,36.0
63.07500,44.0
63.08500,43.0
63.09500,41.0
63.10500,54.0
63.11500,49.0
63.12500,48.0
63.13500,50.0
63.14500,36.0
63.15500,29.0
63.16500,37.0
63.17500,41.0
63.18500,41.0
63.19500,31.0
63.20500,38.0
63.21500,37.0
63.22500,43.0
63.23500,45.0
63.24500,39.0
63.25500,31.0
63.26500,39.0
63.27500,41.0
63.28500,35.0
63.29500,32.0
63.30500,42.0
63.31500,37.0
63.32500,43.0
63.33500,45.0
63.34500,46.0
63.35500,42.0
63.36500,44.0
63.37500,34.0
63.38500,54.0
63.39500,43.0
63.40500,44.0
63.41500,45.0
63.42500,48.0
63.43500,36.0
63.44500,39.0
63.45500,36.0
63.46500,50.0
63.47500,49.0
63.48500,55.0
63.49500,52.0
63.50500,54.0
63.51500,42.0
63.52500,46.0
63.53500,39.0
63.54500,37.0
63.55500,37.0
63.56500,51.0
63.57500,36.0
63.58500,52.0
63.59500,44.0
63.60500,38.0
63.61500,38.0
63.62500,47.0
63.63500,39.0
63.64500,37.0
63.65500,54.0
63.66500,50.0
63.67500,46.0
63.68500,39.0
63.69500,45.0
63.70500,37.0
63.71500,38.0
63.72500,38.0
63.73500,44.0
63.74500,38.0
63.75500,38.0
63.76500,40.0
63.77500,55.0
63.78500,45.0
63.79500,46.0
63.80500,52.0
63.81500,34.0
63.82500,44.0
63.83500,45.0
63.84500,30.0
63.85500,42.0
63.86500,42.0
63.87500,27.0
63.88500,49.0
63.89500,40.0
63.90500,49.0
63.91500,32.0
63.92500,31.0
63.93500,38.0
63.94500,50.0
63.95500,47.0
63.96500,35.0
63.97500,38.0
63.98500,46.0
63.99500,38.0
64.00500,33.0
64.01500,41.0
64.02500,32.0
64.03500,43.0
64.04500,45.0
64.05500,36.0
64.06500,49.0
64.07500,49.0
64.08500,43.0
64.09500,45.0
64.10500,44.0
64.11500,54.0
64.12500,42.0
64.13500,43.0
64.14500,40.0
64.15500,45.0
64.16500,46.0
64.17500,48.0
64.18500,50.0
64.19500,40.0
64.20500,54.0
64.21500,48.0
64.22500,56.0
64.23500,65.0
64.24500,42.0
64.25500,57.0
64.26500,57.0
64.27500,55.0
64.28500,54.0
64.29500,62.0
64.30500,56.0
64.31500,41.0
64.32500,54.0
64.33500,61.0
64.34500,63.0
64.35500,68.0
64.36500,64.0
64.37500,67.0
64.38500,70.0
64.39500,62.0
64.40500,70.0
64.41500,69.0
64.42500,58.0
64.43500,61.0
64.44500,44.0
64.45500,56.0
64.46500,67.0
64.47500,70.0
64.48500,66.0
64.49500,53.0
64.50500,48.0
64.51500,68.0
64.52500,76.0
64.53500,53.0
64.54500,61.0
64.55500,51.0
64.56500,62.0
64.57500,42.0
64.58500,52.0
64.59500,52.0
64.60500,70.0
64.61500,62.0
64.62500,56.0
64.63500,49.0
64.64500,44.0
64.65500,64.0
64.66500,50.0
64.67500,52.0
64.68500,63.0
64.69500,51.0
64.70500,49.0
64.71500,48.0
64.72500,54.0
64.73500,59.0
64.74500,58.0
64.75500,50.0
64.76500,41.0
64.77500,40.0
64.78500,56.0
64.79500,64.0
64.80500,65.0
64.81500,52.0
64.82500,50.0
64.83500,63.0
64.84500,55.0
64.85500,56.0
64.86500,57.0
64.87500,52.0
64.88500,36.0
64.89500,55.0
64.90500,52.0
64.91500,46.0
64.92500,36.0
64.93500,46.0
64.94500,50.0
64.95500,46.0
64.96500,60.0
64.97500,42.0
64.98500,57.0
64.99500,58.0
65.00500,55.0
65.01500,59.0
65.02500,46.0
65.03500,55.0
65.04500,48.0
65.05500,61.0
65.06500,58.0
65.07500,55.0
65.08500,58.0
65.09500,66.0
65.10500,63.0
65.11500,61.0
65.12500,55.0
65.13500,47.0
65.14500,56.0
65.15500,49.0
65.16500,54.0
65.17500,56.0
65.18500,51.0
65.19500,58.0
65.20500,54.0
65.21500,61.0
65.22500,55.0
65.23500,51.0
65.24500,57.0
65.25500,58.0
65.26500,44.0
65.27500,54.0
65.28500,47.0
65.29500,61.0
65.30500,51.0
65.31500,42.0
65.32500,53.0
65.33500,49.0
65.34500,36.0
65.35500,52.0
65.36500,49.0
65.37500,52.0
65.38500,55.0
65.39500,51.0
65.40500,37.0
65.41500,51.0
65.42500,53.0
65.43500,45.0
65.44500,55.0
65.45500,44.0
65.46500,52.0
65.47500,46.0
65.48500,59.0
65.49500,40.0
65.50500,38.0
65.51500,48.0
65.52500,47.0
65.53500,54.0
65.54500,49.0
65.55500,52.0
65.56500,48.0
65.57500,31.0
65.58500,53.0
65.59500,57.0
65.60500,36.0
65.61500,53.0
65.62500,48.0
65.63500,51.0
65.64500,55.0
65.65500,52.0
65.66500,60.0
65.67500,43.0
65.68500,41.0
65.69500,59.0
65.70500,47.0
65.71500,39.0
65.72500,50.0
65.73500,52.0
65.74500,46.0
65.75500,48.0
65.76500,53.0
65.77500,48.0
65.78500,49.0
65.79500,53.0
65.80500,39.0
65.81500,42.0
65.82500,49.0
65.83500,46.0
65.84500,59.0
65.85500,43.0
65.86500,53.0
65.87500,41.0
65.88500,48.0
65.89500,58.0
65.90500,53.0
65.91500,42.0
65.92500,58.0
65.93500,47.0
65.94500,46.0
65.95500,45.0
65.96500,48.0
65.97500,51.0
65.98500,57.0
65.99500,51.0
66.00500,51.0
66.01500,52.0
66.02500,38.0
66.03500,36.0
66.04500,32.0
66.05500,45.0
66.06500,49.0
66.07500,54.0
66.08500,41.0
66.09500,45.0
66.10500,46.0
66.11500,52.0
66.12500,35.0
66.13500,41.0
66.14500,55.0
66.15500,50.0
66.16500,40.0
66.17500,41.0
66.18500,46.0
66.19500,39.0
66.20500,52.0
66.21500,35.0
66.22500,30.0
66.23500,51.0
66.24500,49.0
66.25500,50.0
66.26500,42.0
66.27500,34.0
66.28500,31.0
66.29500,36.0
66.30500,47.0
66.31500,44.0
66.32500,39.0
66.33500,40.0
66.34500,44.0
66.35500,40.0
66.36500,36.0
66.37500,39.0
66.38500,46.0
66.39500,47.0
66.40500,47.0
66.41500,45.0
66.42500,34.0
66.43500,53.0
66.44500,32.0
66.45500,31.0
66.46500,31.0
66.47500,41.0
66.48500,37.0
66.49500,27.0
66.50500,46.0
66.51500,29.0
66.52500,51.0
66.53500,45.0
66.54500,36.0
66.55500,36.0
66.56500,39.0
66.57500,45.0
66.58500,42.0
66.59500,40.0
66.60500,36.0
66.61500,40.0
66.62500,31.0
66.63500,45.0
66.64500,36.0
66.65500,43.0
66.66500,51.0
66.67500,32.0
66.68500,51.0
66.69500,42.0
66.70500,29.0
66.71500,46.0
66.72500,37.0
66.73500,40.0
66.74500,34.0
66.75500,34.0
66.76500,42.0
66.77500,38.0
66.78500,44.0
66.79500,42.0
66.80500,30.0
66.81500,41.0
66.82500,51.0
66.83500,46.0
66.84500,48.0
66.85500,49.0
66.86500,32.0
66.87500,51.0
66.88500,45.0
66.89500,48.0
66.90500,47.0
66.91500,34.0
66.92500,39.0
66.93500,43.0
66.94500,40.0
66.95500,50.0
66.96500,39.0
66.97500,49.0
66.98500,31.0
66.99500,49.0
67.00500,33.0
67.01500,46.0
67.02500,47.0
67.03500,47.0
67.04500,57.0
67.05500,46.0
67.06500,38.0
67.07500,39.0
67.08500,43.0
67.09500,44.0
67.10500,29.0
67.11500,51.0
67.12500,47.0
67.13500,41.0
67.14500,40.0
67.15500,41.0
67.16500,37.0
67.17500,45.0
67.18500,35.0
67.19500,44.0
67.20500,45.0
67.21500,42.0
67.22500,46.0
67.23500,51.0
67.24500,60.0
67.25500,55.0
67.26500,38.0
67.27500,49.0
67.28500,41.0
67.29500,46.0
67.30500,50.0
67.31500,60.0
67.32500,46.0
67.33500,44.0
67.34500,58.0
67.35500,36.0
67.36500,41.0
67.37500,47.0
67.38500,57.0
67.39500,51.0
67.40500,52.0
67.41500,64.0
67.42500,55.0
67.43500,56.0
67.44500,58.0
67.45500,48.0
67.46500,73.0
67.47500,51.0
67.48500,57.0
67.49500,68.0
67.50500,55.0
67.51500,61.0
67.52500,63.0
67.53500,46.0
67.54500,53.0
67.55500,63.0
67.56500,48.0
67.57500,44.0
67.58500,64.0
67.59500,60.0
67.60500,60.0
67.61500,59.0
67.62500,49.0
67.63500,61.0
67.64500,75.0
67.65500,59.0
67.66500,65.0
67.67500,67.0
67.68500,71.0
67.69500,63.0
67.70500,60.0
67.71500,56.0
67.72500,57.0
67.73500,60.0
67.74500,53.0
67.75500,57.0
67.76500,51.0
67.77500,61.0
67.78500,56.0
67.79500,71.0
67.80500,47.0
67.81500,57.0
67.82500,33.0
67.83500,53.0
67.84500,49.0
67.85500,56.0
67.86500,47.0
67.87500,43.0
67.88500,47.0
67.89500,48.0
67.90500,48.0
67.91500,41.0
67.92500,48.0
67.93500,44.0
67.94500,52.0
67.95500,45.0
67.96500,54.0
67.97500,41.0
67.98500,58.0
67.99500,42.0
68.00500,32.0
68.01500,46.0
68.02500,41.0
68.03500,41.0
68.04500,37.0
68.05500,56.0
68.06500,39.0
68.07500,51.0
68.08500,44.0
68.09500,51.0
68.10500,45.0
68.11500,43.0
68.12500,38.0
68.13500,47.0
68.14500,49.0
68.15500,41.0
68.16500,45.0
68.17500,48.0
68.18500,44.0
68.19500,45.0
68.20500,43.0
68.21500,35.0
68.22500,48.0
68.23500,33.0
68.24500,44.0
68.25500,33.0
68.26500,50.0
68.27500,37.0
68.28500,43.0
68.29500,42.0
68.30500,52.0
68.31500,57.0
68.32500,43.0
68.33500,50.0
68.34500,37.0
68.35500,49.0
68.36500,44.0
68.37500,53.0
68.38500,45.0
68.39500,53.0
68.40500,43.0
68.41500,54.0
68.42500,41.0
68.43500,51.0
68.44500,49.0
68.45500,49.0
68.46500,63.0
68.47500,43.0
68.48500,53.0
68.49500,60.0
68.50500,55.0
68.51500,50.0
68.52500,52.0
68.53500,47.0
68.54500,53.0
68.55500,50.0
68.56500,50.0
68.57500,34.0
68.58500,38.0
68.59500,47.0
68.60500,41.0
68.61500,45.0
68.62500,57.0
68.63500,38.0
68.64500,40.0
68.65500,41.0
68.66500,48.0
68.67500,47.0
68.68500,41.0
68.69500,40.0
68.70500,51.0
68.71500,54.0
68.72500,52.0
68.73500,37.0
68.74500,52.0
68.75500,46.0
68.76500,50.0
68.77500,36.0
68.78500,38.0
68.79500,45.0
68.80500,48.0
68.81500,54.0
68.82500,44.0
68.83500,40.0
68.84500,50.0
68.85500,57.0
68.86500,62.0
68.87500,58.0
68.88500,64.0
68.89500,38.0
68.90500,39.0
68.91500,54.0
68.92500,53.0
68.93500,56.0
68.94500,45.0
68.95500,48.0
68.96500,54.0
68.97500,44.0
68.98500,52.0
68.99500,44.0
69.00500,51.0
69.01500,37.0
69.02500,42.0
69.03500,55.0
69.04500,37.0
69.05500,55.0
69.06500,45.0
69.07500,52.0
69.08500,60.0
69.09500,44.0
69.10500,51.0
69.11500,46.0
69.12500,38.0
69.13500,46.0
69.14500,49.0
69.15500,49.0
69.16500,51.0
69.17500,54.0
69.18500,58.0
69.19500,47.0
69.20500,64.0
69.21500,65.0
69.22500,58.0
69.23500,61.0
69.24500,62.0
69.25500,61.0
69.26500,61.0
69.27500,61.0
69.28500,61.0
69.29500,54.0
69.30500,76.0
69.31500,68.0
69.32500,65.0
69.33500,82.0
69.34500,66.0
69.35500,71.0
69.36500,71.0
69.37500,76.0
69.38500,69.0
69.39500,75.0
69.40500,68.0
69.41500,66.0
69.42500,76.0
69.43500,65.0
69.44500,78.0
69.45500,80.0
69.46500,86.0
69.47500,86.0
69.48500,91.0
69.49500,98.0
69.50500,74.0
69.51500,64.0
69.52500,94.0
69.53500,77.0
69.54500,80.0
69.55500,84.0
69.56500,74.0
69.57500,67.0
69.58500,72.0
69.59500,80.0
69.60500,73.0
69.61500,75.0
69.62500,74.0
69.63500,81.0
69.64500,75.0
69.65500,76.0
69.66500,68.0
69.67500,56.0
69.68500,52.0
69.69500,68.0
69.70500,68.0
69.71500,79.0
69.72500,71.0
69.73500,61.0
69.74500,53.0
69.75500,62.0
69.76500,54.0
69.77500,76.0
69.78500,43.0
69.79500,54.0
69.80500,62.0
69.81500,48.0
69.82500,56.0
69.83500,53.0
69.84500,47.0
69.85500,58.0
69.86500,57.0
69.87500,44.0
69.88500,54.0
69.89500,43.0
69.90500,47.0
69.91500,48.0
69.92500,49.0
69.93500,58.0
69.94500,48.0
69.95500,36.0
69.96500,53.0
69.97500,38.0
69.98500,40.0
69.99500,32.0
70.00500,58.0
70.01500,41.0
70.02500,54.0
70.03500,47.0
70.04500,43.0
70.05500,48.0
70.06500,45.0
70.07500,36.0
70.08500,28.0
70.09500,41.0
70.10500,31.0
70.11500,36.0
70.12500,41.0
70.13500,48.0
70.14500,43.0
70.15500,53.0
70.16500,42.0
70.17500,40.0
70.18500,44.0
70.19500,39.0
70.20500,53.0
70.21500,53.0
70.22500,42.0
70.23500,46.0
70.24500,34.0
70.25500,41.0
70.26500,46.0
70.27500,40.0
70.28500,29.0
70.29500,44.0
70.30500,39.0
70.31500,32.0
70.32500,39.0
70.33500,42.0
70.34500,41.0
70.35500,37.0
70.36500,51.0
70.37500,39.0
70.38500,36.0
70.39500,40.0
70.40500,42.0
70.41500,41.0
70.42500,47.0
70.43500,37.0
70.44500,45.0
70.45500,47.0
70.46500,34.0
70.47500,34.0
70.48500,48.0
70.49500,37.0
70.50500,35.0
70.51500,37.0
70.52500,33.0
70.53500,38.0
70.54500,45.0
70.55500,40.0
70.56500,37.0
70.57500,43.0
70.58500,44.0
70.59500,39.0
70.60500,47.0
70.61500,45.0
70.62500,36.0
70.63500,38.0
70.64500,38.0
70.65500,41.0
70.66500,40.0
70.67500,40.0
70.68500,43.0
70.69500,42.0
70.70500,32.0
70.71500,45.0
70.72500,36.0
70.73500,29.0
70.74500,32.0
70.75500,52.0
70.76500,41.0
70.77500,28.0
70.78500,47.0
70.79500,43.0
70.80500,37.0
70.81500,40.0
70.82500,49.0
70.83500,37.0
70.84500,41.0
70.85500,42.0
70.86500,29.0
70.87500,36.0
70.88500,36.0
70.89500,44.0
70.90500,42.0
70.91500,40.0
70.92500,38.0
70.93500,42.0
70.94500,50.0
70.95500,41.0
70.96500,56.0
70.97500,45.0
70.98500,47.0
70.99500,40.0
71.00500,34.0
71.01500,42.0
71.02500,40.0
71.03500,35.0
71.04500,34.0
71.05500,41.0
71.06500,38.0
71.07500,49.0
71.08500,33.0
71.09500,38.0
71.10500,50.0
71.11500,34.0
71.12500,41.0
71.13500,52.0
71.14500,55.0
71.15500,47.0
71.16500,41.0
71.17500,51.0
71.18500,36.0
71.19500,47.0
71.20500,35.0
71.21500,38.0
71.22500,47.0
71.23500,42.0
71.24500,46.0
71.25500,46.0
71.26500,55.0
71.27500,43.0
71.28500,40.0
71.29500,37.0
71.30500,49.0
71.31500,44.0
71.32500,38.0
71.33500,39.0
71.34500,49.0
71.35500,48.0
71.36500,48.0
71.37500,48.0
71.38500,43.0
71.39500,41.0
71.40500,45.0
71.41500,44.0
71.42500,52.0
71.43500,57.0
71.44500,47.0
71.45500,50.0
71.46500,37.0
71.47500,45.0
71.48500,36.0
71.49500,38.0
71.50500,32.0
71.51500,49.0
71.52500,51.0
71.53500,31.0
71.54500,53.0
71.55500,35.0
71.56500,31.0
71.57500,39.0
71.58500,45.0
71.59500,50.0
71.60500,47.0
71.61500,33.0
71.62500,45.0
71.63500,44.0
71.64500,43.0
71.65500,39.0
71.66500,45.0
71.67500,39.0
71.68500,46.0
71.69500,35.0
71.70500,35.0
71.71500,38.0
71.72500,61.0
71.73500,35.0
71.74500,40.0
71.75500,45.0
71.76500,59.0
71.77500,35.0
71.78500,43.0
71.79500,46.0
71.80500,41.0
71.81500,49.0
71.82500,36.0
71.83500,46.0
71.84500,61.0
71.85500,56.0
71.86500,53.0
71.87500,42.0
71.88500,47.0
71.89500,37.0
71.90500,57.0
71.91500,46.0
71.92500,55.0
71.93500,64.0
71.94500,51.0
71.95500,55.0
71.96500,57.0
71.97500,54.0
71.98500,63.0
71.99500,59.0
72.00500,58.0
72.01500,39.0
72.02500,60.0
72.03500,47.0
72.04500,58.0
72.05500,60.0
72.06500,61.0
72.07500,54.0
72.08500,41.0
72.09500,43.0
72.10500,53.0
72.11500,41.0
72.12500,53.0
72.13500,51.0
72.14500,57.0
72.15500,52.0
72.16500,51.0
72.17500,55.0
72.18500,59.0
72.19500,51.0
72.20500,45.0
72.21500,57.0
72.22500,52.0
72.23500,53.0
72.24500,46.0
72.25500,48.0
72.26500,53.0
72.27500,43.0
72.28500,39.0
72.29500,40.0
72.30500,46.0
72.31500,34.0
72.32500,56.0
72.33500,69.0
72.34500,49.0
72.35500,47.0
72.36500,56.0
72.37500,49.0
72.38500,60.0
72.39500,52.0
72.40500,55.0
72.41500,58.0
72.42500,37.0
72.43500,48.0
72.44500,45.0
72.45500,56.0
72.46500,35.0
72.47500,47.0
72.48500,44.0
72.49500,63.0
72.50500,62.0
72.51500,61.0
72.52500,48.0
72.53500,48.0
72.54500,67.0
72.55500,57.0
72.56500,58.0
72.57500,51.0
72.58500,63.0
72.59500,56.0
72.60500,74.0
72.61500,65.0
72.62500,68.0
72.63500,77.0
72.64500,61.0
72.65500,63.0
72.66500,62.0
72.67500,63.0
72.68500,61.0
72.69500,77.0
72.70500,52.0
72.71500,71.0
72.72500,53.0
72.73500,66.0
72.74500,79.0
72.75500,85.0
72.76500,67.0
72.77500,74.0
72.78500,65.0
72.79500,81.0
72.80500,59.0
72.81500,63.0
72.82500,72.0
72.83500,47.0
72.84500,54.0
72.85500,51.0
72.86500,65.0
72.87500,68.0
72.88500,63.0
72.89500,68.0
72.90500,61.0
72.91500,60.0
72.92500,55.0
72.93500,66.0
72.94500,65.0
72.95500,64.0
72.96500,51.0
72.97500,51.0
72.98500,56.0
72.99500,55.0
73.00500,53.0
73.01500,57.0
73.02500,56.0
73.03500,45.0
73.04500,42.0
73.05500,55.0
73.06500,49.0
73.07500,44.0
73.08500,34.0
73.09500,48.0
73.10500,54.0
73.11500,48.0
73.12500,48.0
73.13500,52.0
73.14500,53.0
73.15500,41.0
73.16500,44.0
73.17500,42.0
73.18500,35.0
73.19500,46.0
73.20500,41.0
73.21500,44.0
73.22500,38.0
73.23500,35.0
73.24500,32.0
73.25500,40.0
73.26500,30.0
73.27500,53.0
73.28500,55.0
73.29500,37.0
73.30500,50.0
73.31500,40.0
73.32500,57.0
73.33500,48.0
73.34500,31.0
73.35500,35.0
73.36500,40.0
73.37500,40.0
73.38500,33.0
73.39500,47.0
73.40500,45.0
73.41500,33.0
73.42500,25.0
73.43500,37.0
73.44500,45.0
73.45500,38.0
73.46500,32.0
73.47500,28.0
73.48500,41.0
73.49500,42.0
73.50500,39.0
73.51500,49.0
73.52500,29.0
73.53500,45.0
73.54500,47.0
73.55500,36.0
73.56500,37.0
73.57500,28.0
73.58500,36.0
73.59500,45.0
73.60500,55.0
73.61500,47.0
73.62500,38.0
73.63500,49.0
73.64500,40.0
73.65500,47.0
73.66500,33.0
73.67500,47.0
73.68500,39.0
73.69500,39.0
73.70500,45.0
73.71500,52.0
73.72500,44.0
73.73500,42.0
73.74500,47.0
73.75500,34.0
73.76500,43.0
73.77500,20.0
73.78500,31.0
73.79500,42.0
73.80500,47.0
73.81500,33.0
73.82500,39.0
73.83500,36.0
73.84500,36.0
73.85500,38.0
73.86500,38.0
73.87500,47.0
73.88500,54.0
73.89500,33.0
73.90500,44.0
73.91500,33.0
73.92500,47.0
73.93500,31.0
73.94500,40.0
73.95500,47.0
73.96500,49.0
73.97500,38.0
73.98500,34.0
73.99500,39.0
74.00500,46.0
74.01500,38.0
74.02500,42.0
74.03500,37.0
74.04500,26.0
74.05500,47.0
74.06500,45.0
74.07500,47.0
74.08500,27.0
74.09500,35.0
74.10500,41.0
74.11500,44.0
74.12500,47.0
74.13500,42.0
74.14500,45.0
74.15500,44.0
74.16500,40.0
74.17500,38.0
74.18500,43.0
74.19500,47.0
74.20500,35.0
74.21500,37.0
74.22500,38.0
74.23500,36.0
74.24500,37.0
74.25500,34.0
74.26500,34.0
74.27500,47.0
74.28500,30.0
74.29500,36.0
74.30500,42.0
74.31500,33.0
74.32500,39.0
74.33500,32.0
74.34500,25.0
74.35500,32.0
74.36500,47.0
74.37500,32.0
74.38500,49.0
74.39500,32.0
74.40500,27.0
74.41500,38.0
74.42500,37.0
74.43500,31.0
74.44500,41.0
74.45500,46.0
74.46500,38.0
74.47500,38.0
74.48500,36.0
74.49500,40.0
74.50500,49.0
74.51500,30.0
74.52500,38.0
74.53500,31.0
74.54500,35.0
74.55500,39.0
74.56500,34.0
74.57500,23.0
74.58500,49.0
74.59500,32.0
74.60500,46.0
74.61500,39.0
74.62500,43.0
74.63500,38.0
74.64500,42.0
74.65500,40.0
74.66500,34.0
74.67500,39.0
74.68500,32.0
74.69500,46.0
74.70500,26.0
74.71500,32.0
74.72500,42.0
74.73500,37.0
74.74500,48.0
74.75500,42.0
74.76500,39.0
74.77500,45.0
74.78500,34.0
74.79500,40.0
74.80500,30.0
74.81500,35.0
74.82500,40.0
74.83500,36.0
74.84500,41.0
74.85500,35.0
74.86500,35.0
74.87500,39.0
74.88500,31.0
74.89500,51.0
74.90500,37.0
74.91500,33.0
74.92500,47.0
74.93500,42.0
74.94500,42.0
74.95500,41.0
74.96500,34.0
74.97500,54.0
74.98500,39.0
74.99500,35.0
75.00500,37.0
75.01500,40.0
75.02500,48.0
75.03500,45.0
75.04500,41.0
75.05500,47.0
75.06500,54.0
75.07500,52.0
75.08500,33.0
75.09500,46.0
75.10500,41.0
75.11500,33.0
75.12500,42.0
75.13500,41.0
75.14500,42.0
75.15500,43.0
75.16500,45.0
75.17500,36.0
75.18500,36.0
75.19500,31.0
75.20500,47.0
75.21500,44.0
75.22500,48.0
75.23500,46.0
75.24500,48.0
75.25500,40.0
75.26500,61.0
75.27500,53.0
75.28500,58.0
75.29500,45.0
75.30500,43.0
75.31500,37.0
75.32500,51.0
75.33500,51.0
75.34500,40.0
75.35500,61.0
75.36500,59.0
75.37500,62.0
75.38500,56.0
75.39500,62.0
75.40500,45.0
75.41500,38.0
75.42500,63.0
75.43500,48.0
75.44500,49.0
75.45500,59.0
75.46500,53.0
75.47500,48.0
75.48500,52.0
75.49500,62.0
75.50500,62.0
75.51500,56.0
75.52500,49.0
75.53500,41.0
75.54500,55.0
75.55500,44.0
75.56500,64.0
75.57500,59.0
75.58500,64.0
75.59500,53.0
75.60500,56.0
75.61500,58.0
75.62500,66.0
75.63500,58.0
75.64500,57.0
75.65500,59.0
75.66500,47.0
75.67500,77.0
75.68500,47.0
75.69500,45.0
75.70500,62.0
75.71500,62.0
75.72500,49.0
75.73500,60.0
75.74500,49.0
75.75500,59.0
75.76500,62.0
75.77500,64.0
75.78500,57.0
75.79500,41.0
75.80500,49.0
75.81500,65.0
75.82500,62.0
75.83500,50.0
75.84500,43.0
75.85500,48.0
75.86500,44.0
75.87500,41.0
75.88500,57.0
75.89500,46.0
75.90500,50.0
75.91500,61.0
75.92500,63.0
75.93500,63.0
75.94500,59.0
75.95500,51.0
75.96500,52.0
75.97500,63.0
75.98500,50.0
75.99500,53.0
76.00500,56.0
76.01500,61.0
76.02500,47.0
76.03500,45.0
76.04500,48.0
76.05500,41.0
76.06500,52.0
76.07500,53.0
76.08500,48.0
76.09500,38.0
76.10500,44.0
76.11500,37.0
76.12500,48.0
76.13500,46.0
76.14500,46.0
76.15500,34.0
76.16500,44.0
76.17500,49.0
76.18500,58.0
76.19500,39.0
76.20500,41.0
76.21500,40.0
76.22500,42.0
76.23500,53.0
76.24500,54.0
76.25500,36.0
76.26500,40.0
76.27500,41.0
76.28500,39.0
76.29500,39.0
76.30500,45.0
76.31500,46.0
76.32500,44.0
76.33500,56.0
76.34500,32.0
76.35500,36.0
76.36500,43.0
76.37500,35.0
76.38500,33.0
76.39500,37.0
76.40500,40.0
76.41500,43.0
76.42500,38.0
76.43500,47.0
76.44500,30.0
76.45500,32.0
76.46500,47.0
76.47500,31.0
76.48500,35.0
76.49500,38.0
76.50500,40.0
76.51500,35.0
76.52500,46.0
76.53500,31.0
76.54500,41.0
76.55500,56.0
76.56500,52.0
76.57500,52.0
76.58500,28.0
76.59500,38.0
76.60500,38.0
76.61500,42.0
76.62500,45.0
76.63500,45.0
76.64500,51.0
76.65500,32.0
76.66500,40.0
76.67500,52.0
76.68500,34.0
76.69500,51.0
76.70500,42.0
76.71500,37.0
76.72500,26.0
76.73500,46.0
76.74500,26.0
76.75500,27.0
76.76500,33.0
76.77500,44.0
76.78500,33.0
76.79500,51.0
76.80500,46.0
76.81500,27.0
76.82500,33.0
76.83500,37.0
76.84500,41.0
76.85500,47.0
76.86500,43.0
76.87500,49.0
76.88500,42.0
76.89500,40.0
76.90500,37.0
76.91500,49.0
76.92500,48.0
76.93500,41.0
76.94500,41.0
76.95500,42.0
76.96500,36.0
76.97500,42.0
76.98500,39.0
76.99500,40.0
77.00500,37.0
77.01500,47.0
77.02500,41.0
77.03500,38.0
77.04500,40.0
77.05500,37.0
77.06500,32.0
77.07500,45.0
77.08500,56.0
77.09500,54.0
77.10500,40.0
77.11500,43.0
77.12500,50.0
77.13500,26.0
77.14500,39.0
77.15500,35.0
77.16500,49.0
77.17500,45.0
77.18500,45.0
77.19500,49.0
77.20500,46.0
77.21500,40.0
77.22500,37.0
77.23500,44.0
77.24500,41.0
77.25500,49.0
77.26500,46.0
77.27500,42.0
77.28500,34.0
77.29500,40.0
77.30500,48.0
77.31500,50.0
77.32500,31.0
77.33500,43.0
77.34500,46.0
77.35500,33.0
77.36500,37.0
77.37500,49.0
77.38500,49.0
77.39500,42.0
77.40500,32.0
77.41500,49.0
77.42500,38.0
77.43500,47.0
77.44500,43.0
77.45500,39.0
77.46500,39.0
77.47500,42.0
77.48500,43.0
77.49500,37.0
77.50500,53.0
77.51500,51.0
77.52500,47.0
77.53500,41.0
77.54500,49.0
77.55500,51.0
77.56500,43.0
77.57500,43.0
77.58500,41.0
77.59500,47.0
77.60500,48.0
77.61500,41.0
77.62500,46.0
77.63500,44.0
77.64500,47.0
77.65500,43.0
77.66500,54.0
77.67500,52.0
77.68500,42.0
77.69500,45.0
77.70500,43.0
77.71500,50.0
77.72500,49.0
77.73500,38.0
77.74500,53.0
77.75500,51.0
77.76500,33.0
77.77500,44.0
77.78500,47.0
77.79500,50.0
77.80500,48.0
77.81500,42.0
77.82500,56.0
77.83500,53.0
77.84500,44.0
77.85500,44.0
77.86500,45.0
77.87500,53.0
77.88500,43.0
77.89500,41.0
77.90500,49.0
77.91500,55.0
77.92500,43.0
77.93500,51.0
77.94500,40.0
77.95500,50.0
77.96500,66.0
77.97500,37.0
77.98500,51.0
77.99500,33.0
78.00500,53.0
78.01500,38.0
78.02500,33.0
78.03500,47.0
78.04500,59.0
78.05500,53.0
78.06500,59.0
78.07500,40.0
78.08500,50.0
78.09500,51.0
78.10500,60.0
78.11500,48.0
78.12500,61.0
78.13500,50.0
78.14500,51.0
78.15500,53.0
78.16500,44.0
78.17500,40.0
78.18500,47.0
78.19500,44.0
78.20500,42.0
78.21500,40.0
78.22500,44.0
78.23500,47.0
78.24500,44.0
78.25500,49.0
78.26500,49.0
78.27500,45.0
78.28500,58.0
78.29500,42.0
78.30500,61.0
78.31500,67.0
78.32500,46.0
78.33500,50.0
78.34500,34.0
78.35500,46.0
78.36500,53.0
78.37500,31.0
78.38500,56.0
78.39500,56.0
78.40500,49.0
78.41500,37.0
78.42500,52.0
78.43500,39.0
78.44500,34.0
78.45500,38.0
78.46500,46.0
78.47500,49.0
78.48500,54.0
78.49500,40.0
78.50500,48.0
78.51500,52.0
78.52500,46.0
78.53500,43.0
78.54500,46.0
78.55500,34.0
78.56500,62.0
78.57500,62.0
78.58500,43.0
78.59500,58.0
78.60500,42.0
78.61500,49.0
78.62500,47.0
78.63500,61.0
78.64500,43.0
78.65500,53.0
78.66500,44.0
78.67500,49.0
78.68500,54.0
78.69500,40.0
78.70500,52.0
78.71500,46.0
78.72500,51.0
78.73500,50.0
78.74500,58.0
78.75500,49.0
78.76500,45.0
78.77500,34.0
78.78500,48.0
78.79500,45.0
78.80500,44.0
78.81500,55.0
78.82500,59.0
78.83500,43.0
78.84500,43.0
78.85500,42.0
78.86500,45.0
78.87500,58.0
78.88500,49.0
78.89500,45.0
78.90500,52.0
78.91500,50.0
78.92500,40.0
78.93500,59.0
78.94500,39.0
78.95500,64.0
78.96500,50.0
78.97500,41.0
78.98500,41.0
78.99500,54.0
79.00500,49.0
79.01500,38.0
79.02500,41.0
79.03500,56.0
79.04500,41.0
79.05500,46.0
79.06500,46.0
79.07500,46.0
79.08500,42.0
79.09500,33.0
79.10500,53.0
79.11500,33.0
79.12500,49.0
79.13500,37.0
79.14500,41.0
79.15500,31.0
79.16500,45.0
79.17500,45.0
79.18500,59.0
79.19500,53.0
79.20500,50.0
79.21500,34.0
79.22500,41.0
79.23500,40.0
79.24500,38.0
79.25500,38.0
79.26500,45.0
79.27500,47.0
79.28500,34.0
79.29500,41.0
79.30500,30.0
79.31500,42.0
79.32500,40.0
79.33500,32.0
79.34500,41.0
79.35500,29.0
79.36500,32.0
79.37500,38.0
79.38500,33.0
79.39500,42.0
79.40500,37.0
79.41500,39.0
79.42500,33.0
79.43500,43.0
79.44500,45.0
79.45500,50.0
79.46500,32.0
79.47500,41.0
79.48500,48.0
79.49500,29.0
79.50500,40.0
79.51500,38.0
79.52500,43.0
79.53500,37.0
79.54500,44.0
79.55500,35.0
79.56500,25.0
79.57500,43.0
79.58500,37.0
79.59500,49.0
79.60500,29.0
79.61500,44.0
79.62500,32.0
79.63500,39.0
79.64500,28.0
79.65500,39.0
79.66500,31.0
79.67500,39.0
79.68500,32.0
79.69500,41.0
79.70500,36.0
79.71500,41.0
79.72500,40.0
79.73500,39.0
79.74500,31.0
79.75500,23.0
79.76500,28.0
79.77500,44.0
79.78500,31.0
79.79500,39.0
79.80500,35.0
79.81500,47.0
79.82500,42.0
79.83500,42.0
79.84500,22.0
79.85500,36.0
79.86500,38.0
79.87500,22.0
79.88500,33.0
79.89500,36.0
79.90500,37.0
79.91500,40.0
79.92500,26.0
79.93500,37.0
79.94500,33.0
79.95500,40.0
79.96500,36.0
79.97500,42.0
79.98500,35.0
79.99500,31.0
80.00500,35.0
80.01500,29.0
80.02500,23.0
80.03500,37.0
80.04500,39.0
80.05500,43.0
80.06500,38.0
80.07500,30.0
80.08500,30.0
80.09500,37.0
80.10500,38.0
80.11500,55.0
80.12500,42.0
80.13500,40.0
80.14500,44.0
80.15500,42.0
80.16500,25.0
80.17500,31.0
80.18500,37.0
80.19500,46.0
80.20500,39.0
80.21500,33.0
80.22500,46.0
80.23500,20.0
80.24500,27.0
80.25500,51.0
80.26500,22.0
80.27500,34.0
80.28500,41.0
80.29500,35.0
80.30500,31.0
80.31500,34.0
80.32500,33.0
80.33500,44.0
80.34500,41.0
80.35500,46.0
80.36500,44.0
80.37500,39.0
80.38500,46.0
80.39500,45.0
80.40500,38.0
80.41500,31.0
80.42500,37.0
80.43500,34.0
80.44500,41.0
80.45500,47.0
80.46500,49.0
80.47500,33.0
80.48500,33.0
80.49500,43.0
80.50500,39.0
80.51500,38.0
80.52500,38.0
80.53500,55.0
80.54500,31.0
80.55500,54.0
80.56500,53.0
80.57500,31.0
80.58500,43.0
80.59500,39.0
80.60500,52.0
80.61500,54.0
80.62500,52.0
80.63500,52.0
80.64500,45.0
80.65500,39.0
80.66500,35.0
80.67500,43.0
80.68500,34.0
80.69500,50.0
80.70500,49.0
80.71500,46.0
80.72500,31.0
80.73500,50.0
80.74500,40.0
80.75500,51.0
80.76500,59.0
80.77500,43.0
80.78500,50.0
80.79500,44.0
80.80500,38.0
80.81500,48.0
80.82500,50.0
80.83500,43.0
80.84500,64.0
80.85500,51.0
80.86500,62.0
80.87500,46.0
80.88500,45.0
80.89500,45.0
80.90500,38.0
80.91500,53.0
80.92500,36.0
80.93500,43.0
80.94500,45.0
80.95500,38.0
80.96500,51.0
80.97500,47.0
80.98500,38.0
80.99500,38.0
81.00500,44.0
81.01500,44.0
81.02500,42.0
81.03500,51.0
81.04500,48.0
81.05500,48.0
81.06500,39.0
81.07500,48.0
81.08500,44.0
81.09500,58.0
81.10500,47.0
81.11500,32.0
81.12500,44.0
81.13500,57.0
81.14500,56.0
81.15500,53.0
81.16500,39.0
81.17500,59.0
81.18500,53.0
81.19500,63.0
81.20500,64.0
81.21500,57.0
81.22500,47.0
81.23500,50.0
81.24500,39.0
81.25500,52.0
81.26500,55.0
81.27500,44.0
81.28500,48.0
81.29500,45.0
81.30500,38.0
81.31500,58.0
81.32500,40.0
81.33500,47.0
81.34500,42.0
81.35500,60.0
81.36500,49.0
81.37500,62.0
81.38500,53.0
81.39500,48.0
81.40500,46.0
81.41500,56.0
81.42500,31.0
81.43500,41.0
81.44500,40.0
81.45500,49.0
81.46500,50.0
81.47500,39.0
81.48500,40.0
81.49500,33.0
81.50500,26.0
81.51500,32.0
81.52500,44.0
81.53500,41.0
81.54500,52.0
81.55500,49.0
81.56500,44.0
81.57500,33.0
81.58500,30.0
81.59500,43.0
81.60500,36.0
81.61500,31.0
81.62500,31.0
81.63500,49.0
81.64500,37.0
81.65500,35.0
81.66500,31.0
81.67500,54.0
81.68500,43.0
81.69500,38.0
81.70500,43.0
81.71500,31.0
81.72500,55.0
81.73500,40.0
81.74500,39.0
81.75500,47.0
81.76500,42.0
81.77500,40.0
81.78500,49.0
81.79500,37.0
81.80500,44.0
81.81500,44.0
81.82500,41.0
81.83500,34.0
81.84500,37.0
81.85500,40.0
81.86500,38.0
81.87500,47.0
81.88500,39.0
81.89500,49.0
81.90500,34.0
81.91500,51.0
81.92500,62.0
81.93500,55.0
81.94500,47.0
81.95500,31.0
81.96500,45.0
81.97500,35.0
81.98500,41.0
81.99500,43.0
82.00500,60.0
82.01500,38.0
82.02500,50.0
82.03500,45.0
82.04500,29.0
82.05500,49.0
82.06500,43.0
82.07500,40.0
82.08500,50.0
82.09500,50.0
82.10500,40.0
82.11500,55.0
82.12500,36.0
82.13500,42.0
82.14500,45.0
82.15500,23.0
82.16500,33.0
82.17500,42.0
82.18500,31.0
82.19500,52.0
82.20500,35.0
82.21500,41.0
82.22500,44.0
82.23500,36.0
82.24500,39.0
82.25500,36.0
82.26500,39.0
82.27500,40.0
82.28500,25.0
82.29500,26.0
82.30500,47.0
82.31500,32.0
82.32500,42.0
82.33500,49.0
82.34500,34.0
82.35500,34.0
82.36500,36.0
82.37500,25.0
82.38500,31.0
82.39500,34.0
82.40500,35.0
82.41500,29.0
82.42500,23.0
82.43500,34.0
82.44500,38.0
82.45500,46.0
82.46500,51.0
82.47500,47.0
82.48500,38.0
82.49500,37.0
82.50500,35.0
82.51500,27.0
82.52500,41.0
82.53500,36.0
82.54500,27.0
82.55500,29.0
82.56500,46.0
82.57500,46.0
82.58500,39.0
82.59500,47.0
82.60500,32.0
82.61500,41.0
82.62500,32.0
82.63500,37.0
82.64500,28.0
82.65500,30.0
82.66500,41.0
82.67500,32.0
82.68500,32.0
82.69500,44.0
82.70500,42.0
82.71500,51.0
82.72500,44.0
82.73500,32.0
82.74500,39.0
82.75500,25.0
82.76500,36.0
82.77500,39.0
82.78500,41.0
82.79500,30.0
82.80500,39.0
82.81500,43.0
82.82500,37.0
82.83500,33.0
82.84500,41.0
82.85500,43.0
82.86500,35.0
82.87500,55.0
82.88500,24.0
82.89500,32.0
82.90500,31.0
82.91500,32.0
82.92500,40.0
82.93500,33.0
82.94500,31.0
82.95500,31.0
82.96500,35.0
82.97500,39.0
82.98500,36.0
82.99500,33.0
83.00500,36.0
83.01500,37.0
83.02500,46.0
83.03500,28.0
83.04500,24.0
83.05500,33.0
83.06500,41.0
83.07500,33.0
83.08500,30.0
83.09500,32.0
83.10500,40.0
83.11500,35.0
83.12500,51.0
83.13500,40.0
83.14500,28.0
83.15500,25.0
83.16500,29.0
83.17500,45.0
83.18500,29.0
83.19500,26.0
83.20500,53.0
83.21500,28.0
83.22500,45.0
83.23500,37.0
83.24500,33.0
83.25500,43.0
83.26500,26.0
83.27500,33.0
83.28500,27.0
83.29500,34.0
83.30500,26.0
83.31500,26.0
83.32500,23.0
83.33500,42.0
83.34500,30.0
83.35500,36.0
83.36500,33.0
83.37500,30.0
83.38500,32.0
83.39500,36.0
83.40500,26.0
83.41500,34.0
83.42500,32.0
83.43500,38.0
83.44500,26.0
83.45500,32.0
83.46500,28.0
83.47500,35.0
83.48500,27.0
83.49500,35.0
83.50500,45.0
83.51500,35.0
83.52500,31.0
83.53500,26.0
83.54500,32.0
83.55500,32.0
83.56500,35.0
83.57500,44.0
83.58500,32.0
83.59500,34.0
83.60500,22.0
83.61500,26.0
83.62500,31.0
83.63500,30.0
83.64500,28.0
83.65500,29.0
83.66500,35.0
83.67500,31.0
83.68500,34.0
83.69500,26.0
83.70500,33.0
83.71500,37.0
83.72500,37.0
83.73500,26.0
83.74500,34.0
83.75500,25.0
83.76500,31.0
83.77500,34.0
83.78500,36.0
83.79500,31.0
83.80500,32.0
83.81500,34.0
83.82500,24.0
83.83500,33.0
83.84500,31.0
83.85500,31.0
83.86500,39.0
83.87500,31.0
83.88500,35.0
83.89500,38.0
83.90500,27.0
83.91500,26.0
83.92500,39.0
83.93500,35.0
83.94500,31.0
83.95500,37.0
83.96500,31.0
83.97500,26.0
83.98500,42.0
83.99500,38.0
84.00500,30.0
84.01500,47.0
84.02500,37.0
84.03500,33.0
84.04500,32.0
84.05500,32.0
84.06500,30.0
84.07500,41.0
84.08500,39.0
84.09500,39.0
84.10500,43.0
84.11500,32.0
84.12500,41.0
84.13500,41.0
84.14500,33.0
84.15500,45.0
84.16500,32.0
84.17500,42.0
84.18500,26.0
84.19500,39.0
84.20500,30.0
84.21500,34.0
84.22500,37.0
84.23500,41.0
84.24500,37.0
84.25500,35.0
84.26500,26.0
84.27500,34.0
84.28500,30.0
84.29500,37.0
84.30500,42.0
84.31500,43.0
84.32500,37.0
84.33500,40.0
84.34500,37.0
84.35500,37.0
84.36500,43.0
84.37500,34.0
84.38500,32.0
84.39500,37.0
84.40500,34.0
84.41500,29.0
84.42500,31.0
84.43500,44.0
84.44500,28.0
84.45500,29.0
84.46500,46.0
84.47500,45.0
84.48500,43.0
84.49500,39.0
84.50500,47.0
84.51500,47.0
84.52500,29.0
84.53500,52.0
84.54500,40.0
84.55500,27.0
84.56500,38.0
84.57500,44.0
84.58500,45.0
84.59500,44.0
84.60500,46.0
84.61500,47.0
84.62500,41.0
84.63500,49.0
84.64500,38.0
84.65500,46.0
84.66500,47.0
84.67500,51.0
84.68500,44.0
84.69500,53.0
84.70500,35.0
84.71500,42.0
84.72500,49.0
84.73500,50.0
84.74500,46.0
84.75500,45.0
84.76500,49.0
84.77500,42.0
84.78500,54.0
84.79500,58.0
84.80500,45.0
84.81500,61.0
84.82500,37.0
84.83500,36.0
84.84500,39.0
84.85500,48.0
84.86500,38.0
84.87500,44.0
84.88500,36.0
84.89500,32.0
84.90500,43.0
84.91500,47.0
84.92500,31.0
84.93500,45.0
84.94500,38.0
84.95500,40.0
84.96500,46.0
84.97500,46.0
84.98500,39.0
84.99500,33.0
85.00500,53.0
85.01500,31.0
85.02500,32.0
85.03500,49.0
85.04500,43.0
